#Wavelength     Flux    Sky Spectrum 
#[Angstrom]   [Counts]     [Counts]
3654.52    36.727028    35.627754
3655.99    57.195316    55.719830
3657.46    15.488670    14.105147
3658.93     1.303086     1.433114
3660.40     7.024395     2.474345
3661.88    -1.913723    -2.737482
3663.35    35.146107    36.179615
3664.82    46.852825    44.312977
3666.29    -3.211767    -3.591858
3667.76     2.897425     4.100180
3669.23    -7.390663    -9.909904
3670.70    31.385418    32.125011
3672.17    -0.892854    -3.497979
3673.64    -9.874719    -9.390921
3675.11     7.388538    10.165037
3676.58     4.091290     6.456480
3678.05    12.739891     9.499475
3679.52    19.498758    22.082556
3680.99    -37.719116    -38.815918
3682.46    -11.722198    -13.385929
3683.93    15.489830     9.327871
3685.40    42.535988    43.601627
3686.87    59.276115    59.541260
3688.35    16.980101    12.289735
3689.82    -11.483577    -11.284003
3691.29     0.282725    -3.422955
3692.76    37.251431    34.407829
3694.23    19.184839    22.170809
3695.70    16.241028    10.818868
3697.17    11.348771     7.487993
3698.64     1.321444     1.829321
3700.11    21.637968    23.718231
3701.58    49.345913    55.088436
3703.05    21.432127    20.338488
3704.52    17.411230    13.315260
3705.99    11.650701     7.288321
3707.46    -4.018461    -5.543540
3708.93    -0.372595     1.853799
3710.40    50.832668    56.344009
3711.87    16.632036    17.185249
3713.34    26.697657    27.289650
3714.82    15.570608     7.315310
3716.29     6.963558     4.517922
3717.76    21.972780    25.529030
3719.23    38.600842    35.900135
3720.70     8.702445    13.303229
3722.17    11.508870    13.722128
3723.64     4.725680     4.445307
3725.11     1.165105    -0.748069
3726.58    21.333227    21.802658
3728.05    14.765590     9.350536
3729.52    55.129360    50.775475
3730.99    15.094660    16.714243
3732.46    20.680212    22.998838
3733.93    19.152416    13.015619
3735.40    -1.742574    -24.166908
3736.87    16.169493    15.851811
3738.34    32.141460    34.882641
3739.81    -3.449193    -3.778063
3741.29    -4.113655    -5.489322
3742.76    -42.600609    -41.474369
3744.23    43.811840    45.888805
3745.70    38.441059    35.724472
3747.17    17.480469    25.743948
3748.64    46.537125    44.542301
3750.11    -0.658587     3.013243
3751.58    -15.828833    -19.251137
3753.05    31.530483    29.672304
3754.52    30.604025    28.412901
3755.99     5.458524    11.303371
3757.46    39.566647    44.454891
3758.93    -2.048118     3.080008
3760.40    -33.059258    -34.917633
3761.87     9.772058     3.465230
3763.34    46.199230    50.289307
3764.81    17.486263    23.500586
3766.28    28.178850    29.292204
3767.75    -1.219685     3.647679
3769.23    -9.799485    -15.103527
3770.70    18.414249    14.585515
3772.17     3.308530     0.790690
3773.64    14.839171    20.783543
3775.11    31.413916    33.563217
3776.58    32.318783    25.196125
3778.05    30.398651    33.204250
3779.52     6.360374    16.748795
3780.99    11.581224    11.499141
3782.46    10.299276     8.877940
3783.93    40.750423    41.896275
3785.40    63.643337    59.733139
3786.87    25.019444    26.552547
3788.34    10.511324     9.858461
3789.81    33.231354    34.531254
3791.28    20.616219    12.708107
3792.75    -9.419785    -19.216118
3794.22     7.212932     8.350487
3795.70    23.041710    20.294941
3797.17    16.043434    17.010723
3798.64    24.289913    22.748844
3800.11    12.931972     9.667435
3801.58    60.140926    61.781315
3803.05     3.069055     2.686049
3804.52    -15.445391    -16.950039
3805.99    44.065899    42.812500
3807.46     3.046617    -0.901576
3808.93    45.301704    38.736591
3810.40    16.142254    17.702301
3811.87    16.830072     7.477731
3813.34    22.435041    20.615442
3814.81    16.303831     9.752651
3816.28    29.745958    10.898655
3817.75     0.782183     9.725537
3819.22    -15.334290    -27.826607
3820.69    34.756760    26.764204
3822.17    15.545102    13.739391
3823.64    35.840557    41.542042
3825.11    27.126196    16.477598
3826.58    23.703423    24.825535
3828.05    75.310631    66.954987
3829.52    47.498203    44.458572
3830.99    21.258938    29.546730
3832.46    23.665194     1.965443
3833.93    81.123978    89.240181
3835.40    30.043547    36.900925
3836.87    37.407627    30.284206
3838.34    16.572287     5.109984
3839.81    58.310158    58.852058
3841.28    23.855097    25.302866
3842.75    34.081615    18.393499
3844.22    60.692249    55.130199
3845.69    51.946136    49.682949
3847.16    13.193439     8.160899
3848.63    27.029253     8.274317
3850.11    44.059158    33.402508
3851.58    19.961708    18.932423
3853.05    31.685472    23.201227
3854.52    54.887470    54.833256
3855.99    34.035900    42.006454
3857.46    30.029970    29.487074
3858.93    14.056252    13.004077
3860.40    26.733309    20.325575
3861.87    22.826605    19.151417
3863.34    26.148415    27.893005
3864.81    28.339775    15.458220
3866.28    23.434797    23.564041
3867.75     4.622817     0.198470
3869.22    43.312641    45.460262
3870.69    70.543846    74.110374
3872.16    23.838520    24.920919
3873.63    27.293545    25.456190
3875.10    34.567444    45.891605
3876.58    27.089975    36.759823
3878.05    -1.461135    -15.836623
3879.52    13.588460    -3.204321
3880.99    42.040520    45.025150
3882.46    35.485924    32.100113
3883.93    26.212984    19.090679
3885.40    62.539371    61.362671
3886.87    35.548443    46.465549
3888.34    38.612637    43.793488
3889.81    64.866119    72.202568
3891.28     6.140409    -0.300746
3892.75    30.795752    33.179054
3894.22    41.676083    44.745705
3895.69    58.174149    46.371048
3897.16    38.759079    37.541298
3898.63    49.371136    42.866959
3900.10    40.409088    32.917728
3901.57    30.843540    32.718933
3903.05     8.435214    -2.660306
3904.52    67.778389    57.518002
3905.99    62.209087    61.570488
3907.46    84.207184    83.227798
3908.93    18.295174     2.516309
3910.40    32.785496    36.941536
3911.87    33.874504    32.054482
3913.34    49.579002    42.394753
3914.81    40.389385    35.892353
3916.28    28.649357    26.344162
3917.75    20.091696    32.743488
3919.22    23.703207    11.953691
3920.69     3.167301     7.493667
3922.16    54.890266    52.751217
3923.63    30.812132    30.340635
3925.10     8.249222    -7.649471
3926.57    29.402767    24.049309
3928.04    44.161148    53.407074
3929.52    -16.688995    -3.306359
3930.99    41.808243    37.353836
3932.46    14.200617    14.761323
3933.93    59.477112    50.434071
3935.40    50.821735    44.321453
3936.87    23.448322    24.105984
3938.34    31.455996    33.907871
3939.81    47.908192    43.090725
3941.28     6.320443    -11.151963
3942.75     2.912693     4.332921
3944.22    18.300293    17.008520
3945.69    28.841312    10.660404
3947.16    45.943260    41.359138
3948.63    73.270271    69.592369
3950.10    55.864235    58.834606
3951.57    27.372292    21.441196
3953.04    32.739429    32.266636
3954.51    32.674938    28.109253
3955.98    18.619453     7.678621
3957.46    62.159485    64.741791
3958.93    70.630699    64.618584
3960.40    41.788395    27.975466
3961.87    38.770332    51.457039
3963.34    45.866261    49.444832
3964.81    40.031021    31.442724
3966.28    57.273842    51.134289
3967.75    63.661217    66.871063
3969.22    60.806297    62.803417
3970.69    28.794214    31.640165
3972.16    35.621387    33.313198
3973.63    49.373562    45.917515
3975.10    32.927914    37.747021
3976.57    36.160736    40.894897
3978.04    29.882338    24.713552
3979.51    62.673393    70.293243
3980.98    58.410908    52.641907
3982.45    24.540234    11.275716
3983.93     7.990760     1.497521
3985.40    23.248882    24.537033
3986.87    45.059895    46.849083
3988.34    21.434040    14.578815
3989.81    39.891914    36.976128
3991.28    41.969234    51.759220
3992.75    53.960480    58.565041
3994.22    30.326384    21.325180
3995.69    19.757175    23.448591
3997.16    23.086452    21.894737
3998.63    22.271980    16.102686
4000.10    46.709507    51.537735
4001.57    11.142222     1.967803
4003.04    38.608624    47.616516
4004.51    35.629349    38.327717
4005.98     7.779682    14.988314
4007.45    29.094498    24.416325
4008.92    10.226269    23.767372
4010.40     1.472033    -4.170187
4011.87    59.135269    52.393372
4013.34    15.683430    10.972097
4014.81    13.221005    17.258825
4016.28    30.526344    41.198380
4017.75    27.823759    37.327881
4019.22    26.168314    27.743414
4020.69    36.220264    10.301127
4022.16    33.783092    21.288734
4023.63    31.260019    21.671312
4025.10    21.145916    34.491539
4026.57    52.633678    60.562939
4028.04    39.933048    34.986168
4029.51    52.092541    48.254974
4030.98    53.381611    51.633575
4032.45    47.137669    80.757164
4033.92    23.904379    23.334003
4035.39    42.795818    51.211765
4036.87    14.046058    17.363869
4038.34    38.595734    34.111973
4039.81    19.129175    13.677135
4041.28    47.629913    43.584160
4042.75    41.997593    46.508327
4044.22    62.263618    59.216305
4045.69    48.798317    44.033546
4047.16    17.305065    11.452366
4048.63    27.883545    18.401060
4050.10    -3.232279    -7.802898
4051.57    53.293823    55.476719
4053.04    57.626812    56.337410
4054.51    48.427666    37.737961
4055.98    55.594696    68.946243
4057.45    22.785402    33.239147
4058.92     6.990992     2.620829
4060.39    50.082996    43.618755
4061.86    55.595753    60.305740
4063.33    40.122478    29.233643
4064.81    52.186806    42.186199
4066.28    16.537247     9.998963
4067.75    16.494993    11.132302
4069.22    37.200562    26.254642
4070.69    23.345274    22.187267
4072.16    30.397055    33.040882
4073.63    42.406925    34.316158
4075.10     9.405079     3.512480
4076.57    34.550716    35.392742
4078.04    62.868324    70.268036
4079.51    70.358505    71.398849
4080.98    60.415913    52.482632
4082.45    51.400097    45.235519
4083.92    57.027885    50.655933
4085.39    64.028633    75.579071
4086.86    51.058918    60.596172
4088.33    59.422905    63.422161
4089.80    60.735943    63.212265
4091.28    47.692707    43.191017
4092.75    63.117062    60.961468
4094.22    79.515724    82.534698
4095.69    52.584053    37.897083
4097.16    55.960819    48.960022
4098.63    62.662167    64.158211
4100.10    42.750149    17.985670
4101.57    28.971188    34.760635
4103.04    50.465271    49.527195
4104.51    58.614861    40.830860
4105.98    11.612382    -0.033426
4107.45    62.984135    70.924507
4108.92    45.048450    39.093060
4110.39    46.610439    27.997490
4111.86    43.834850    40.782738
4113.33    54.432499    42.425613
4114.80    73.042198    71.029854
4116.27    43.660740    31.421139
4117.75    20.736719    12.272377
4119.22    42.507015    50.992847
4120.69    31.316820    40.110020
4122.16    53.119259    61.479450
4123.63    41.654354    40.286888
4125.10     9.314596     4.576617
4126.57     0.171493     0.572909
4128.04    41.007786    39.146008
4129.51    51.771156    27.747181
4130.98    40.210728    40.636120
4132.45    54.131989    58.049656
4133.92    28.114784    31.080070
4135.39    58.537594    44.061131
4136.86    49.857597    57.813877
4138.33    62.574497    52.229549
4139.80    69.039650    65.252884
4141.27    71.910606    82.519608
4142.74    78.456070    79.743347
4144.22    84.457443    81.967262
4145.69    56.733860    51.068703
4147.16    89.654076    92.354774
4148.63    48.961437    47.379017
4150.10    48.236702    40.504189
4151.57    31.754938    16.957680
4153.04    69.397598    81.129066
4154.51    64.774727    50.030579
4155.98    42.948734    51.051117
4157.45     2.123161    -1.503615
4158.92    29.874352    34.032482
4160.39    49.547359    50.788399
4161.86    33.698090    31.916616
4163.33    -14.470087    -27.275732
4164.80    68.235245    67.374733
4166.27    27.146631    27.000376
4167.74    59.917252    48.006195
4169.21    54.113964    56.278378
4170.68    61.808601    73.615311
4172.16    68.440636    48.175083
4173.63    62.469830    53.371357
4175.10    83.598289    66.673233
4176.57    82.539856    72.977112
4178.04    75.431862    67.241928
4179.51    89.497307    97.232025
4180.98    104.485611    105.920944
4182.45    84.770508    78.987457
4183.92    90.558578    97.363228
4185.39    134.655685    133.235092
4186.86    114.734291    105.267418
4188.33    107.108521    113.796570
4189.80    81.359947    67.546890
4191.27    101.857445    96.632835
4192.74    102.412903    87.962280
4194.21    118.977631    110.641846
4195.68    115.961784    109.271805
4197.15    95.712395    101.588341
4198.63    113.792519    116.071648
4200.10    93.490135    92.739944
4201.57    89.773064    82.713120
4203.04    89.821930    90.862747
4204.51    100.834053    115.892090
4205.98    101.528419    106.459030
4207.45    96.591133    96.394424
4208.92    94.015167    79.033394
4210.39    77.781143    68.989212
4211.86    94.684479    105.744888
4213.33    124.939598    135.903809
4214.80    112.559631    101.818451
4216.27    106.073318    101.507477
4217.74    108.723061    115.155937
4219.21    111.954948    92.285759
4220.68    110.610397    103.490601
4222.15    90.609718    83.618469
4223.62    88.198242    88.108086
4225.10    105.059441    104.322845
4226.57    106.363838    98.015068
4228.04    82.833694    97.151474
4229.51    74.742439    90.521507
4230.98    87.354790    89.784378
4232.45    96.661934    84.285797
4233.92    83.562042    82.504158
4235.39    102.363037    81.304436
4236.86    114.986847    116.327866
4238.33    103.427116    111.798256
4239.80    97.256927    92.052666
4241.27    84.722633    99.128830
4242.74    125.032471    114.937042
4244.21    89.994926    72.598030
4245.68    106.810181    94.042969
4247.15    96.251404    113.232452
4248.62    94.749161    99.331963
4250.09    80.225067    90.118637
4251.57    125.413536    142.939621
4253.04    109.398033    106.613403
4254.51    86.410004    88.290810
4255.98    115.198143    89.282860
4257.45    79.282814    77.073952
4258.92    78.641258    79.178001
4260.39    127.470444    123.665527
4261.86    31.904413    32.625950
4263.33    74.295334    66.660088
4264.80    106.157593    94.128349
4266.27    94.119598    96.582008
4267.74    108.796661    93.550484
4269.21    107.754395    105.993660
4270.68    118.845551    98.962105
4272.15    122.557266    121.811188
4273.62    109.366425    109.801430
4275.09    117.841400    147.736465
4276.56    132.564697    120.576508
4278.03    131.451263    122.150368
4279.51    112.472084    110.223610
4280.98    142.698532    150.587921
4282.45    83.022568    89.777702
4283.92    112.675140    117.254913
4285.39    127.061066    132.190247
4286.86    103.821465    104.550476
4288.33    162.519836    166.639404
4289.80    128.948807    129.948578
4291.27    107.611336    111.563156
4292.74    121.520035    124.225372
4294.21    119.607437    123.963882
4295.68    114.348114    132.709427
4297.15    109.902374    99.499237
4298.62    102.797424    86.883469
4300.09    86.009811    95.941521
4301.56    140.619614    126.239265
4303.03    84.593002    87.023338
4304.50    105.160194    95.934410
4305.98    90.126541    101.169815
4307.45    105.568382    109.603165
4308.92    82.186508    84.357292
4310.39    153.199005    145.603897
4311.86    124.489616    88.543701
4313.33    128.519058    129.587860
4314.80    110.635551    128.953201
4316.27    115.877525    82.493286
4317.74    101.891396    83.222107
4319.21    97.053055    97.398933
4320.68    114.802269    103.966164
4322.15    149.701660    169.068146
4323.62    96.738731    103.875725
4325.09    122.358086    123.564384
4326.56    115.538925    109.128059
4328.03    111.934952    109.610680
4329.50    103.661774    94.239861
4330.97    145.317902    150.198730
4332.45    81.055183    85.738449
4333.92    97.453255    102.356064
4335.39    119.970940    129.013077
4336.86    96.161110    80.261322
4338.33    112.016136    106.350983
4339.80    127.591866    129.980850
4341.27    130.783752    132.188873
4342.74    134.398483    132.269974
4344.21    97.153130    87.575005
4345.68    95.499458    91.289940
4347.15    122.167923    115.328796
4348.62    134.502853    126.805122
4350.09    121.896126    125.321724
4351.56    100.818558    94.840172
4353.03    99.461128    103.754288
4354.50    96.665619    89.791565
4355.97    130.038651    118.192085
4357.44    146.068649    147.554474
4358.91    87.678848    85.570297
4360.39    134.325333    149.838028
4361.86    125.490402    129.514313
4363.33    123.818275    130.455765
4364.80    130.168411    137.990433
4366.27    121.933014    132.691727
4367.74    110.095932    109.647583
4369.21    143.476563    138.869995
4370.68    136.704208    137.848938
4372.15    125.083832    124.539940
4373.62    132.662689    146.226547
4375.09    124.088852    145.983276
4376.56    105.804054    117.835129
4378.03    98.597527    93.108635
4379.50    114.192741    98.939163
4380.97    146.113205    154.755630
4382.44    133.248306    140.614258
4383.91    113.844078    124.295715
4385.38    122.096680    104.561569
4386.86    105.315903    88.341576
4388.33    102.570625    115.761436
4389.80    104.945282    102.297020
4391.27    113.603882    109.726936
4392.74    139.163147    146.105942
4394.21    118.343994    118.522041
4395.68    104.737778    101.210587
4397.15    85.010490    82.733444
4398.62    125.108627    119.987671
4400.09    124.017509    131.073364
4401.56    121.274254    124.831627
4403.03    101.419258    110.887955
4404.50    89.810387    106.140648
4405.97    80.307449    61.973080
4407.44    140.131073    125.157951
4408.91    124.358528    110.410492
4410.38    110.687317    103.839249
4411.85    110.708015    100.304298
4413.33    138.863815    128.653351
4414.80    122.829483    118.975288
4416.27    135.569397    135.471725
4417.74    139.205246    144.332718
4419.21    123.339241    104.145798
4420.68    155.707275    162.933197
4422.15    149.812225    166.150970
4423.62    137.715149    155.103546
4425.09    151.152954    138.699341
4426.56    132.390854    116.099838
4428.03    130.373642    106.750328
4429.50    138.428268    156.302795
4430.97    129.151978    126.319321
4432.44    132.165207    141.016541
4433.91    131.942520    119.818428
4435.38    81.267899    78.635750
4436.85    112.936920    122.419350
4438.32    126.128891    124.665482
4439.80    122.109879    125.498528
4441.27    160.135208    149.025009
4442.74    145.145584    152.688660
4444.21    126.445915    131.181107
4445.68    133.031952    132.012985
4447.15    173.394897    180.596634
4448.62    123.494904    141.214111
4450.09    103.721588    84.149704
4451.56    146.481354    144.803162
4453.03    139.287262    136.576553
4454.50    163.333282    167.119049
4455.97    153.211166    168.632980
4457.44    124.974045    133.008957
4458.91    157.049026    154.668259
4460.38    91.976494    65.967751
4461.85    134.936157    130.525848
4463.32    149.879669    148.916367
4464.79    134.276718    120.780075
4466.26    93.147659    88.198624
4467.74    127.104935    129.763290
4469.21    140.179428    141.211868
4470.68    159.801407    160.055740
4472.15    158.862823    153.943726
4473.62    139.915909    147.526550
4475.09    154.347870    148.806030
4476.56    124.524086    130.772156
4478.03    112.990746    94.365936
4479.50    113.561584    118.913101
4480.97    130.777206    137.789886
4482.44    128.286484    125.852631
4483.91    118.382614    123.702187
4485.38    121.498741    87.958450
4486.85    153.602142    163.667343
4488.32    138.886292    130.736938
4489.79    127.237007    110.720322
4491.26    171.673431    163.137405
4492.73    134.870682    133.926407
4494.21    209.238510    205.179886
4495.68    112.499718    101.695251
4497.15    138.592758    151.991837
4498.62    114.188583    127.889084
4500.09    125.192230    148.023071
4501.56    145.961151    123.238663
4503.03    141.597473    134.999756
4504.50    93.865860    107.401703
4505.97    118.721321    110.858528
4507.44    112.165894    127.146133
4508.91    103.996132    111.374763
4510.38    78.961983    76.734261
4511.85    77.352943    108.093445
4513.32    124.178337    131.133179
4514.79    123.723114    129.797760
4516.26    111.720741    83.292336
4517.73    133.353302    137.542984
4519.20    133.420792    134.499588
4520.68    164.471970    183.669037
4522.15    123.834175    119.526566
4523.62    188.621048    204.477341
4525.09    167.247620    158.114822
4526.56    185.902649    188.530487
4528.03    147.842880    139.423721
4529.50    158.372040    157.040192
4530.97    166.207245    154.713486
4532.44    166.700684    174.256332
4533.91    188.230057    183.759933
4535.38    144.927444    141.871841
4536.85    140.326920    146.875763
4538.32    147.640198    141.976089
4539.79    198.895462    204.224899
4541.26    165.316406    168.862000
4542.73    144.359787    138.573425
4544.20    149.546799    151.054306
4545.67    191.601410    187.460876
4547.15    187.391296    185.594940
4548.62    150.460281    164.714127
4550.09    173.451477    173.322159
4551.56    134.098145    129.336334
4553.03    149.372559    149.171661
4554.50    194.178574    205.983719
4555.97    168.794540    184.075424
4557.44    183.354141    190.917923
4558.91    162.431061    153.571625
4560.38    187.574661    192.390060
4561.85    193.801483    201.531723
4563.32    199.483093    197.558487
4564.79    159.427643    155.686691
4566.26    148.948883    152.032104
4567.73    162.250107    142.282639
4569.20    150.271606    143.542099
4570.67    221.994949    235.754990
4572.14    184.542252    187.436050
4573.61    183.133133    164.250320
4575.09    193.803833    202.981018
4576.56    147.990875    187.496353
4578.03    175.774384    176.525604
4579.50    198.249191    195.718307
4580.97    196.027023    196.062241
4582.44    183.745926    187.239685
4583.91    177.041931    173.157303
4585.38    171.372147    185.007507
4586.85    144.157547    132.858429
4588.32    158.900650    137.957687
4589.79    181.951675    175.599579
4591.26    162.961426    168.760178
4592.73    165.603241    166.151398
4594.20    157.656860    175.913162
4595.67    125.613068    145.408020
4597.14    176.434784    169.397018
4598.61    168.048523    161.764740
4600.08    138.455399    136.893906
4601.56    159.534683    144.641968
4603.03    178.982178    157.239456
4604.50    186.523453    180.908600
4605.97    151.699844    137.617493
4607.44    204.325394    207.043915
4608.91    199.061401    205.759186
4610.38    182.542603    179.543411
4611.85    195.177536    200.643677
4613.32    170.546371    178.205551
4614.79    166.332291    165.756943
4616.26    174.160965    173.431778
4617.73    157.095093    147.399704
4619.20    163.673309    165.226044
4620.67    204.111832    217.428223
4622.14    189.414490    194.302856
4623.61    166.617432    163.844269
4625.08    204.478287    201.697861
4626.55    211.510483    212.672028
4628.03    209.911224    198.371033
4629.50    215.638626    202.939301
4630.97    199.277237    193.619125
4632.44    172.756073    169.875137
4633.91    246.300751    236.252457
4635.38    243.525940    224.364868
4636.85    216.027893    217.741913
4638.32    203.111084    211.007721
4639.79    165.361145    167.660553
4641.26    195.464386    177.372162
4642.73    213.204407    201.162094
4644.20    190.082169    192.421631
4645.67    177.949463    181.335373
4647.14    202.927536    198.900711
4648.61    172.688293    171.121414
4650.08    190.191925    179.267410
4651.55    221.496246    223.374344
4653.02    201.632828    215.845856
4654.50    210.729858    217.295013
4655.97    220.574249    237.102188
4657.44    177.854584    183.950119
4658.91    219.161591    230.416306
4660.38    228.520981    224.028641
4661.85    180.987625    181.644699
4663.32    228.816010    225.754074
4664.79    208.854950    178.696381
4666.26    205.456024    196.971252
4667.73    237.569443    227.669662
4669.20    220.880905    231.409012
4670.67    201.764999    191.639267
4672.14    197.966263    203.719070
4673.61    188.427643    189.813232
4675.08    180.311615    191.585556
4676.55    225.034302    237.279938
4678.02    246.774124    246.380295
4679.49    188.167160    196.637039
4680.96    192.116608    209.878159
4682.44    253.632248    261.111572
4683.91    229.932770    250.644516
4685.38    199.945206    201.182846
4686.85    201.405441    197.426941
4688.32    218.901077    221.672943
4689.79    194.310089    193.801712
4691.26    201.939560    213.833481
4692.73    233.813034    258.749237
4694.20    241.769073    242.763428
4695.67    225.957352    231.199203
4697.14    187.220413    187.598419
4698.61    232.611664    225.001999
4700.08    247.716736    249.882706
4701.55    243.575882    243.461655
4703.02    261.866211    253.937744
4704.49    247.552505    232.507187
4705.96    254.017624    266.182220
4707.43    208.741699    203.885361
4708.91    243.097061    255.273117
4710.38    257.729340    273.818878
4711.85    232.164825    239.100861
4713.32    264.814423    272.790222
4714.79    178.413757    173.319916
4716.26    261.347778    274.862579
4717.73    263.631439    271.594238
4719.20    257.084839    257.654510
4720.67    238.679932    237.676743
4722.14    265.749878    255.740906
4723.61    240.936188    240.868958
4725.08    275.960724    285.343079
4726.55    247.637466    238.592743
4728.02    259.318634    245.375916
4729.49    279.834503    276.328369
4730.96    228.728500    219.103302
4732.43    259.173279    260.808716
4733.90    242.841385    240.480927
4735.38    226.840652    234.639297
4736.85    222.250641    222.450119
4738.32    234.806763    233.913055
4739.79    195.717789    210.451904
4741.26    228.993820    211.340714
4742.73    273.376770    293.320312
4744.20    228.272034    234.740891
4745.67    199.587006    185.844955
4747.14    185.196777    182.482178
4748.61    196.797012    203.593704
4750.08    224.762482    218.953217
4751.55    216.220215    216.046051
4753.02    194.278885    191.905975
4754.49    247.617050    242.667709
4755.96    217.171417    217.614349
4757.43    240.493744    246.872452
4758.90    253.521210    249.056076
4760.37    214.883850    222.098022
4761.85    230.879486    247.245682
4763.32    253.940018    265.440338
4764.79    241.269440    238.933853
4766.26    228.444412    220.151840
4767.73    273.926697    274.539764
4769.20    208.616913    210.880493
4770.67    204.898636    186.643051
4772.14    241.941620    230.030121
4773.61    237.215897    250.055069
4775.08    288.262665    281.698639
4776.55    249.224869    249.035965
4778.02    279.778290    279.265350
4779.49    253.083160    244.877487
4780.96    257.030975    272.857330
4782.43    230.693222    238.173355
4783.90    254.727753    257.617950
4785.37    242.120941    242.080276
4786.84    281.122772    300.407166
4788.31    300.467682    292.781464
4789.79    249.298187    240.455643
4791.26    293.220459    301.521667
4792.73    246.702164    250.816864
4794.20    239.057281    248.830276
4795.67    289.259155    300.257568
4797.14    244.003113    235.447510
4798.61    278.235626    280.459045
4800.08    261.051056    255.100159
4801.55    241.851929    234.814850
4803.02    283.151520    291.819916
4804.49    258.671173    248.470123
4805.96    212.332886    221.774994
4807.43    290.002655    294.472504
4808.90    237.632278    226.724594
4810.37    235.833878    234.371078
4811.84    263.877502    254.181274
4813.31    229.946030    225.638641
4814.78    239.408005    245.010925
4816.26    278.164764    266.588196
4817.73    257.343964    215.682343
4819.20    244.283005    234.854111
4820.67    279.127808    263.180695
4822.14    244.905060    240.887238
4823.61    249.557770    255.819382
4825.08    216.717667    211.596176
4826.55    300.250183    295.384521
4828.02    242.660461    238.811005
4829.49    299.835052    317.041870
4830.96    291.094757    283.509003
4832.43    284.836487    249.495758
4833.90    228.078400    219.961716
4835.37    286.057373    302.920532
4836.84    285.157318    291.414612
4838.31    319.563110    319.532928
4839.78    253.502777    261.029846
4841.25    231.842239    227.160889
4842.73    302.812317    284.186279
4844.20    275.895508    284.237213
4845.67    260.675507    281.334259
4847.14    269.432770    269.763367
4848.61    256.199371    245.394302
4850.08    244.523590    242.250504
4851.55    269.292603    283.106720
4853.02    297.509308    304.468231
4854.49    303.959106    303.038818
4855.96    228.055542    223.694214
4857.43    279.220795    285.936737
4858.90    281.470978    272.205353
4860.37    297.055817    302.668213
4861.84    278.285522    277.891998
4863.31    248.941055    240.339493
4864.78    241.429031    246.612976
4866.25    258.887634    258.148376
4867.72    261.498199    258.813049
4869.19    253.627289    254.227356
4870.67    242.161530    237.989624
4872.14    238.088089    235.353409
4873.61    214.960693    207.925858
4875.08    275.457642    287.201752
4876.55    264.493561    247.281464
4878.02    287.873138    307.130280
4879.49    238.766998    246.547058
4880.96    293.521118    300.091095
4882.43    262.045685    247.741867
4883.90    249.402298    259.686676
4885.37    312.526367    314.306793
4886.84    288.901886    289.868073
4888.31    243.022980    244.524521
4889.78    247.228745    253.591324
4891.25    275.389984    278.201874
4892.72    243.525986    235.405106
4894.19    218.392960    204.502777
4895.66    275.774872    262.838348
4897.14    235.595337    231.732880
4898.61    207.181992    210.550507
4900.08    229.986633    211.949646
4901.55    250.970734    235.610626
4903.02    225.425629    213.658646
4904.49    237.112518    254.494156
4905.96    245.004181    232.019547
4907.43    262.033630    259.152710
4908.90    247.952362    251.221252
4910.37    246.767334    243.486679
4911.84    244.582504    242.706345
4913.31    265.638031    254.369064
4914.78    300.114624    301.108795
4916.25    253.760880    269.766968
4917.72    287.276031    296.076782
4919.19    287.695648    282.521484
4920.66    279.467438    284.218262
4922.13    260.415253    266.681702
4923.61    232.044800    236.664551
4925.08    213.522430    216.768082
4926.55    331.395264    339.732056
4928.02    289.799652    303.271851
4929.49    244.103638    245.501160
4930.96    245.835846    234.607895
4932.43    230.435913    237.746063
4933.90    262.870209    269.068359
4935.37    284.922791    283.311920
4936.84    291.468140    302.796936
4938.31    255.648087    245.866974
4939.78    252.551315    269.294434
4941.25    270.552551    266.207458
4942.72    295.752563    298.852539
4944.19    290.035919    284.073486
4945.66    287.568268    293.235229
4947.13    242.216049    228.256393
4948.60    310.054413    307.259460
4950.08    254.766022    270.864532
4951.55    255.279816    250.260452
4953.02    298.188141    311.096710
4954.49    298.119568    297.772064
4955.96    290.265594    295.731232
4957.43    276.883636    285.204468
4958.90    292.498749    291.900391
4960.37    309.783936    302.110901
4961.84    313.410034    318.008636
4963.31    261.351776    241.102310
4964.78    273.509308    278.536285
4966.25    297.804108    270.836090
4967.72    272.203003    276.979950
4969.19    289.256104    300.448914
4970.66    308.424988    299.629333
4972.13    263.389435    295.732727
4973.60    295.335022    291.127167
4975.07    343.240051    338.335785
4976.54    267.432434    283.297241
4978.02    282.576355    280.727844
4979.49    348.884247    336.909302
4980.96    296.102142    313.591003
4982.43    293.799133    293.426361
4983.90    295.918915    292.075684
4985.37    300.618347    300.006866
4986.84    294.067047    291.350098
4988.31    297.869293    306.140594
4989.78    296.228729    297.123169
4991.25    275.771118    261.509827
4992.72    293.449005    300.961731
4994.19    295.827087    292.506195
4995.66    284.769440    294.322113
4997.13    224.265488    206.859421
4998.60    316.874939    314.739166
5000.07    280.762482    272.378876
5001.54    283.023773    267.308594
5003.01    311.150970    308.950989
5004.49    287.903259    278.524384
5005.96    294.585480    319.258331
5007.43    290.963867    285.442688
5008.90    281.515289    311.400055
5010.37    263.389069    260.706451
5011.84    266.734955    279.817596
5013.31    284.625122    300.963104
5014.78    289.036835    289.852356
5016.25    247.359451    227.859329
5017.72    300.178070    302.204590
5019.19    321.524292    314.974884
5020.66    261.411346    255.438049
5022.13    350.022339    369.334686
5023.60    261.737732    267.223572
5025.07    340.060333    336.912445
5026.54    268.802887    264.078156
5028.01    278.183411    280.284485
5029.48    306.164612    304.218597
5030.96    310.953400    313.525482
5032.43    320.483612    324.971313
5033.90    323.535065    324.212952
5035.37    302.547943    284.106262
5036.84    273.649902    277.635956
5038.31    297.880066    298.803101
5039.78    319.598877    329.717163
5041.25    276.526642    281.797211
5042.72    341.274750    342.903137
5044.19    302.405396    300.395721
5045.66    306.017365    297.328796
5047.13    294.843140    297.423859
5048.60    333.282135    340.285400
5050.07    305.414063    296.553650
5051.54    286.178528    282.394440
5053.01    314.453735    314.695709
5054.48    351.596985    340.886902
5055.95    272.687592    264.657562
5057.43    376.462646    356.949036
5058.90    316.558929    327.301849
5060.37    275.425659    278.928406
5061.84    283.448486    287.393341
5063.31    311.922821    308.339081
5064.78    318.367767    329.124786
5066.25    327.562286    320.893280
5067.72    274.785248    270.220154
5069.19    331.496063    332.159424
5070.66    305.462616    312.533203
5072.13    288.098755    278.638092
5073.60    272.936279    262.571533
5075.07    283.468628    273.801270
5076.54    318.577118    306.308258
5078.01    330.973206    339.264374
5079.48    322.234467    323.141937
5080.95    306.480164    305.680176
5082.42    264.481628    262.950195
5083.89    309.049957    302.016449
5085.37    330.383698    338.642273
5086.84    291.999573    288.101318
5088.31    280.459869    276.827698
5089.78    325.748962    315.891815
5091.25    310.128754    311.109863
5092.72    316.098083    323.264587
5094.19    258.743225    257.331848
5095.66    306.422485    311.596863
5097.13    279.629944    278.534546
5098.60    271.158600    268.369965
5100.07    262.242065    260.961823
5101.54    283.931885    277.150269
5103.01    292.734741    291.989014
5104.48    295.337067    293.972137
5105.95    294.651703    283.273773
5107.42    240.788483    229.497574
5108.89    318.315582    322.806488
5110.36    297.144897    300.002014
5111.84    296.609039    296.624207
5113.31    296.025391    294.872009
5114.78    275.114136    283.725189
5116.25    312.975067    307.578125
5117.72    352.048126    356.023438
5119.19    317.487823    311.503754
5120.66    305.722656    319.665924
5122.13    291.183929    281.979156
5123.60    291.682281    298.167633
5125.07    303.881714    297.497253
5126.54    317.550201    310.400177
5128.01    289.024414    303.205078
5129.48    263.538788    259.559692
5130.95    324.613953    321.528473
5132.42    352.963531    372.737000
5133.89    314.262238    305.684570
5135.36    368.350372    367.163483
5136.83    326.575134    331.404388
5138.31    323.702820    320.775360
5139.78    334.030365    337.672668
5141.25    314.200226    318.732361
5142.72    313.164764    299.665375
5144.19    353.524078    334.847473
5145.66    301.099609    293.271667
5147.13    211.231644    266.036438
5148.60    336.376495    337.798767
5150.07    307.101257    319.852234
5151.54    300.836426    298.530670
5153.01    324.123596    315.618134
5154.48    296.358643    293.138336
5155.95    325.774597    323.869629
5157.42    273.750366    271.765289
5158.89    297.647461    289.493866
5160.36    322.289154    312.457672
5161.83    323.723694    318.952667
5163.30    309.309235    311.625458
5164.78    299.267151    293.770142
5166.25    319.317657    322.098724
5167.72    294.311218    289.445587
5169.19    308.408875    306.358307
5170.66    359.216370    356.885010
5172.13    326.017761    322.076996
5173.60    308.264160    306.987823
5175.07    323.757477    344.594788
5176.54    323.878204    318.987366
5178.01    301.755188    280.908051
5179.48    321.548950    332.419861
5180.95    331.452576    335.790253
5182.42    360.001373    369.734528
5183.89    319.633484    329.596619
5185.36    297.426636    297.834076
5186.83    365.716553    376.270782
5188.30    353.808807    341.687073
5189.77    296.440430    294.213409
5191.24    301.228180    307.939819
5192.72    345.387054    341.455475
5194.19    359.553497    360.568970
5195.66    319.982513    311.211395
5197.13    380.405487    384.621429
5198.60    277.361145    270.871552
5200.07    337.297089    336.469391
5201.54    375.825165    384.790741
5203.01    314.576935    308.564026
5204.48    307.300446    307.363068
5205.95    320.043488    312.259674
5207.42    327.663086    332.832977
5208.89    352.070312    329.841553
5210.36    326.318817    321.633453
5211.83    298.012360    305.670380
5213.30    305.256165    299.567108
5214.77    335.932922    343.767670
5216.24    291.204468    295.064117
5217.71    303.084167    305.486908
5219.19    290.276642    291.484253
5220.66    328.114014    324.862183
5222.13    262.313934    250.996536
5223.60    312.857208    309.567047
5225.07    310.533295    314.014771
5226.54    301.858704    320.972626
5228.01    307.657532    317.741547
5229.48    293.870514    290.904083
5230.95    265.692444    260.276031
5232.42    318.866089    309.398834
5233.89    310.722900    333.766846
5235.36    303.110931    311.900085
5236.83    351.200989    356.946960
5238.30    344.011932    355.382660
5239.77    330.843597    327.982086
5241.24    327.197723    315.010101
5242.71    307.322357    320.167419
5244.18    345.964813    346.251587
5245.66    288.761505    297.085663
5247.13    305.115784    318.596039
5248.60    300.632019    338.284698
5250.07    312.477417    308.190735
5251.54    277.468445    288.784698
5253.01    303.407440    317.344147
5254.48    299.261292    303.399261
5255.95    272.063568    256.193909
5257.42    251.482941    249.899384
5258.89    272.395386    285.367187
5260.36    304.452179    306.702271
5261.83    262.585632    263.728241
5263.30    244.078278    255.501038
5264.77    262.669373    255.382507
5266.24    280.673065    279.268799
5267.71    274.432373    271.283661
5269.18    313.348236    325.495361
5270.65    321.015442    309.084229
5272.13    343.096161    358.561768
5273.60    351.171692    355.155823
5275.07    344.169434    345.254364
5276.54    296.156708    306.713226
5278.01    285.616882    293.257050
5279.48    253.935989    269.685516
5280.95    274.480682    280.567719
5282.42    331.013245    336.645660
5283.89    296.638885    294.158386
5285.36    231.271713    217.915207
5286.83    268.899689    269.027252
5288.30    325.056763    329.582825
5289.77    297.166260    295.182220
5291.24    312.021393    318.025543
5292.71    360.429688    355.957764
5294.18    289.807404    283.412323
5295.65    285.306152    287.228943
5297.12    313.258331    307.381134
5298.59    333.772949    318.099060
5300.07    296.632843    294.674957
5301.54    272.753601    269.402405
5303.01    309.094391    309.822479
5304.48    322.054871    327.479309
5305.95    318.053772    320.371552
5307.42    314.683990    316.165253
5308.89    336.601196    339.317749
5310.36    352.598846    362.870911
5311.83    343.468475    351.616425
5313.30    290.215729    273.549133
5314.77    322.193573    290.724762
5316.24    299.145508    297.707916
5317.71    266.201324    288.115723
5319.18    331.616608    337.844391
5320.65    311.441895    321.302490
5322.12    296.794861    300.598755
5323.59    279.905090    281.980927
5325.06    283.236664    277.757111
5326.54    317.794525    316.305115
5328.01    303.081604    300.253540
5329.48    286.892548    288.781769
5330.95    281.844604    283.273224
5332.42    255.357254    253.182236
5333.89    287.497650    290.954285
5335.36    309.246460    308.281708
5336.83    326.786621    334.863831
5338.30    297.710175    300.799194
5339.77    312.491791    318.927002
5341.24    317.049225    315.463043
5342.71    301.479431    296.411774
5344.18    292.042053    287.240173
5345.65    296.647736    293.426483
5347.12    299.006348    290.884644
5348.59    277.505859    270.774963
5350.06    288.595154    294.508972
5351.53    281.883850    283.905365
5353.01    299.316528    313.088104
5354.48    286.031342    293.249695
5355.95    295.013397    283.536560
5357.42    274.783997    289.499664
5358.89    264.885559    274.800232
5360.36    300.342072    293.653412
5361.83    321.683594    327.233063
5363.30    301.591583    292.999298
5364.77    324.855896    323.568268
5366.24    331.302917    329.137756
5367.71    306.550323    303.805267
5369.18    341.339996    350.781372
5370.65    276.950562    277.020111
5372.12    293.250061    298.865814
5373.59    317.218079    317.249298
5375.06    272.857910    267.273376
5376.53    322.066956    307.736145
5378.00    335.239929    319.912933
5379.47    297.557495    293.876343
5380.95    295.152222    293.959961
5382.42    288.099152    290.160461
5383.89    294.867859    299.585754
5385.36    322.812897    307.758942
5386.83    291.953125    281.233673
5388.30    245.376343    252.586533
5389.77    309.022705    305.374390
5391.24    295.772125    310.159790
5392.71    282.406250    298.782013
5394.18    291.044891    290.268250
5395.65    263.242218    270.414581
5397.12    304.515228    302.883362
5398.59    314.045258    311.627106
5400.06    315.656433    314.616516
5401.53    288.789703    283.132233
5403.00    245.611710    230.374054
5404.47    277.521637    282.665405
5405.94    322.069153    332.566223
5407.42    303.363678    308.371002
5408.89    292.842285    301.375763
5410.36    295.688141    291.178894
5411.83    257.433167    264.194641
5413.30    269.023712    258.954010
5414.77    314.772736    312.399292
5416.24    271.620178    286.456696
5417.71    244.643753    260.353912
5419.18    219.324631    215.104614
5420.65    228.477539    232.848633
5422.12    216.124359    225.151459
5423.59    249.929596    263.401672
5425.06    225.457779    216.016144
5426.53    227.164780    214.887833
5428.00    241.244019    241.883179
5429.47    256.678070    268.499969
5430.94    299.280579    304.449005
5432.41    259.136841    251.687637
5433.89    270.644196    268.462738
5435.36    257.031342    256.004517
5436.83    269.763641    269.798615
5438.30    261.466187    268.125031
5439.77    261.040344    265.022705
5441.24    275.454041    288.016266
5442.71    271.344147    274.261322
5444.18    270.882843    273.851379
5445.65    279.864838    280.932922
5447.12    314.796906    309.484039
5448.59    314.152191    309.877960
5450.06    302.773560    303.328613
5451.53    315.403290    318.577545
5453.00    319.355713    320.919800
5454.47    336.409698    338.212677
5455.94    266.178375    273.622589
5457.41    296.628418    286.385651
5458.88    318.741364    322.874115
5460.36    278.810364    283.341919
5461.83    223.701385    214.083466
5463.30    299.877197    314.101685
5464.77    322.447205    320.750610
5466.24    334.959351    329.546295
5467.71    320.061340    334.050598
5469.18    337.087708    334.510437
5470.65    331.550446    333.799561
5472.12    329.725189    328.304749
5473.59    299.555054    308.262756
5475.06    355.516663    349.362518
5476.53    330.165070    338.194611
5478.00    343.645966    355.188110
5479.47    323.953491    323.081970
5480.94    326.100250    316.198578
5482.41    320.069885    311.423920
5483.88    332.074493    321.916534
5485.35    348.981903    346.518951
5486.82    295.165466    290.852203
5488.30    341.890381    337.832947
5489.77    375.299652    388.585510
5491.24    349.061768    362.035797
5492.71    334.300873    317.669830
5494.18    326.632172    322.480988
5495.65    354.935516    352.420197
5497.12    320.240906    309.797791
5498.59    361.616119    376.608154
5500.06    343.781311    351.710449
5501.53    340.644806    329.495361
5503.00    332.635925    329.298737
5504.47    320.859192    338.421326
5505.94    318.970947    326.481506
5507.41    343.633118    358.656647
5508.88    341.205109    327.262573
5510.35    335.434906    337.081757
5511.82    358.424225    351.424683
5513.29    387.159241    394.197357
5514.77    382.399750    379.575836
5516.24    298.078156    297.739441
5517.71    311.345612    315.254303
5519.18    318.073425    324.460907
5520.65    274.282074    281.760834
5522.12    286.051392    277.386139
5523.59    302.180878    293.153992
5525.06    302.368134    287.510712
5526.53    287.413147    296.970703
5528.00    283.201599    282.892700
5529.47    313.875916    303.277344
5530.94    331.636322    328.202148
5532.41    333.289551    335.811371
5533.88    297.290161    291.861115
5535.35    364.559784    362.370789
5536.82    377.474304    385.140869
5538.29    359.966370    372.964935
5539.76    383.232178    387.364777
5541.24    344.171753    341.907562
5542.71    395.510223    384.367004
5544.18    376.110992    364.255035
5545.65    359.512695    353.506256
5547.12    360.267944    376.192627
5548.59    357.427460    343.338593
5550.06    367.942383    355.419556
5551.53    313.931305    304.561218
5553.00    373.450073    394.953949
5554.47    350.633057    352.677307
5555.94    306.011505    309.605133
5557.41    311.206909    315.969757
5558.88    400.329254    388.942322
5560.35    297.993469    290.481903
5561.82    374.610046    372.660980
5563.29    402.152832    405.566742
5564.76    350.657806    357.673370
5566.23    383.933502    380.471436
5567.71    428.662903    433.479095
5569.18    373.669006    379.876434
5570.65    384.980896    383.382782
5572.12    419.405029    420.457855
5573.59    337.206879    318.547333
5575.06    430.460632    458.814972
5576.53    414.167572    422.318542
5578.00    431.225403    420.103119
5579.47    359.878815    401.221130
5580.94    323.462280    303.998566
5582.41    279.853180    255.923141
5583.88    287.743713    272.006989
5585.35    320.083771    312.181396
5586.82    350.089996    348.760590
5588.29    304.408997    312.124329
5589.76    358.131561    368.496582
5591.23    348.336487    341.461578
5592.70    329.368500    297.160645
5594.17    362.424408    359.421021
5595.65    363.212616    330.421448
5597.12    339.811310    343.299683
5598.59    366.379364    357.295227
5600.06    349.337067    345.000916
5601.53    331.661652    324.752472
5603.00    349.750977    342.731049
5604.47    390.085754    385.752899
5605.94    354.908142    345.635986
5607.41    368.323425    363.229492
5608.88    396.708588    383.026489
5610.35    359.813049    348.905853
5611.82    337.180267    328.127167
5613.29    406.165833    401.798248
5614.76    406.376617    398.264343
5616.23    357.616394    352.704620
5617.70    398.239716    414.906616
5619.17    405.932434    422.372162
5620.64    387.112213    379.307190
5622.12    369.120972    364.062653
5623.59    348.918335    361.690735
5625.06    347.245453    353.824615
5626.53    324.211792    334.790497
5628.00    355.313049    354.754547
5629.47    291.576385    291.603699
5630.94    370.132843    366.585754
5632.41    328.397247    333.256866
5633.88    329.650116    335.577148
5635.35    446.922729    445.888763
5636.82    381.327576    371.822723
5638.29    356.375763    355.780640
5639.76    381.380554    375.315674
5641.23    359.070282    349.199493
5642.70    389.540955    391.644562
5644.17    360.518921    353.758667
5645.64    387.222443    390.985199
5647.11    406.006378    418.051605
5648.59    371.404083    363.529114
5650.06    383.630920    385.119629
5651.53    375.967194    370.740051
5653.00    345.948608    347.817749
5654.47    338.270264    353.531830
5655.94    350.003174    350.741943
5657.41    374.167542    366.803436
5658.88    353.907471    351.000031
5660.35    350.774719    360.690186
5661.82    338.841797    338.934631
5663.29    334.315765    324.543274
5664.76    358.158417    367.236359
5666.23    321.638031    322.001160
5667.70    325.129547    326.163757
5669.17    327.931366    330.157898
5670.64    289.643555    280.872131
5672.11    302.761566    306.558746
5673.58    361.326172    357.368378
5675.06    384.414825    391.950684
5676.53    353.051453    358.149536
5678.00    387.187012    385.387482
5679.47    414.615723    411.938293
5680.94    379.648010    375.904144
5682.41    353.631012    366.116150
5683.88    313.924622    317.437073
5685.35    362.039307    348.488159
5686.82    382.435272    385.720490
5688.29    349.201385    358.282471
5689.76    342.847748    343.121368
5691.23    314.209625    314.414398
5692.70    356.794495    347.864075
5694.17    381.123749    368.630035
5695.64    356.001312    363.411530
5697.11    347.545990    356.834167
5698.58    374.616516    374.809113
5700.05    369.692505    389.562195
5701.52    343.147461    346.334290
5703.00    405.981750    399.732178
5704.47    405.857697    423.457916
5705.94    390.189301    384.715668
5707.41    367.151764    360.803772
5708.88    334.464050    345.260437
5710.35    295.585785    296.196167
5711.82    340.541901    331.196228
5713.29    375.434265    366.501251
5714.76    338.237946    335.177704
5716.23    382.631012    375.552917
5717.70    347.731964    339.495544
5719.17    346.988983    335.947876
5720.64    390.210388    394.563324
5722.11    331.347992    326.858490
5723.58    371.623810    373.941620
5725.05    365.357269    369.714081
5726.52    352.721283    347.098969
5727.99    319.827484    304.719971
5729.47    356.497955    351.543427
5730.94    403.753326    410.302856
5732.41    373.298798    375.489990
5733.88    371.625458    367.457764
5735.35    368.872375    373.028412
5736.82    392.692047    404.652527
5738.29    347.908722    348.073730
5739.76    332.691925    329.272003
5741.23    350.322266    342.449402
5742.70    366.038666    375.529327
5744.17    352.647339    343.818726
5745.64    337.998444    341.539856
5747.11    347.629822    359.679260
5748.58    346.087769    354.871674
5750.05    330.114349    322.968750
5751.52    375.851135    359.794556
5752.99    361.126404    341.647797
5754.46    351.091766    353.660278
5755.94    352.051849    341.598724
5757.41    413.206787    415.492401
5758.88    412.932861    432.515350
5760.35    385.146057    369.967285
5761.82    367.871002    371.139709
5763.29    345.416504    341.554382
5764.76    324.043854    320.883331
5766.23    347.650055    352.942993
5767.70    330.289490    331.591492
5769.17    354.675079    354.269714
5770.64    403.073853    400.107544
5772.11    342.860596    335.362366
5773.58    382.462463    365.150757
5775.05    368.518372    367.365173
5776.52    330.240692    332.334045
5777.99    346.056488    345.441559
5779.46    349.261475    354.013672
5780.93    352.871063    351.213074
5782.41    313.115417    312.241974
5783.88    342.651031    339.651031
5785.35    375.169464    390.799744
5786.82    369.376099    374.963684
5788.29    391.152618    391.914795
5789.76    359.943054    362.321136
5791.23    369.319977    362.935791
5792.70    351.737762    347.164825
5794.17    429.367706    437.922241
5795.64    362.499207    369.721405
5797.11    350.569122    342.730438
5798.58    355.438751    350.765869
5800.05    308.571777    303.008118
5801.52    370.623047    370.920593
5802.99    342.962158    350.145447
5804.46    334.314209    336.307831
5805.93    387.708160    379.388702
5807.40    359.399902    359.184875
5808.87    377.766205    379.443848
5810.35    368.160858    379.874756
5811.82    365.594330    366.339417
5813.29    403.861176    410.838501
5814.76    384.759399    405.316315
5816.23    353.730530    364.149872
5817.70    378.387512    383.841248
5819.17    385.864532    385.559998
5820.64    377.145660    375.920502
5822.11    403.953217    392.455383
5823.58    361.953430    370.526947
5825.05    390.191833    415.087891
5826.52    375.292816    386.040161
5827.99    361.110352    357.363495
5829.46    346.120819    351.741730
5830.93    363.363708    364.364471
5832.40    349.318390    326.396759
5833.87    359.771698    361.867462
5835.34    333.156586    332.833069
5836.82    439.204742    442.536591
5838.29    332.547119    335.706635
5839.76    328.405365    337.506775
5841.23    389.118652    378.640594
5842.70    340.606323    341.321991
5844.17    364.745880    358.483124
5845.64    352.132080    360.645905
5847.11    371.672211    361.780792
5848.58    359.413483    368.897980
5850.05    369.003906    374.292877
5851.52    340.647156    337.501221
5852.99    332.707245    341.888306
5854.46    387.116028    399.583405
5855.93    353.250885    368.264008
5857.40    345.747192    318.630005
5858.87    387.434235    399.655823
5860.34    381.110229    382.805817
5861.81    374.854645    382.388916
5863.29    334.456787    329.175690
5864.76    363.625732    384.884766
5866.23    307.632263    298.158691
5867.70    314.288422    311.683014
5869.17    369.596100    369.171204
5870.64    322.132874    313.215332
5872.11    318.433136    332.185669
5873.58    358.569733    358.994324
5875.05    346.136993    362.615021
5876.52    318.042542    298.074585
5877.99    346.772797    344.545288
5879.46    433.092377    433.120392
5880.93    311.652985    318.174988
5882.40    362.753998    368.261566
5883.87    421.887634    444.628021
5885.34    365.335999    371.532013
5886.81    367.282776    354.605347
5888.28    370.122589    362.724731
5889.75    345.426239    341.184174
5891.23    339.045380    358.824341
5892.70    338.609772    357.015839
5894.17    366.714325    355.878143
5895.64    348.895264    363.653778
5897.11    353.211243    354.651611
5898.58    269.000336    271.493591
5900.05    336.532440    329.713623
5901.52    317.615204    332.496918
5902.99    360.525848    369.257721
5904.46    377.370300    377.627472
5905.93    328.072815    335.867493
5907.40    367.878418    365.567566
5908.87    366.820831    357.806396
5910.34    385.663879    396.217316
5911.81    348.116302    341.833038
5913.28    332.632751    338.978943
5914.75    350.793549    351.452301
5916.22    377.631012    370.295319
5917.70    339.934753    337.370636
5919.17    418.366058    417.298309
5920.64    319.765991    296.208740
5922.11    316.483490    314.482605
5923.58    361.359436    365.198303
5925.05    393.339050    389.369507
5926.52    355.121002    339.778748
5927.99    355.535278    341.976257
5929.46    329.456665    328.136597
5930.93    334.501495    340.133606
5932.40    350.722107    340.751038
5933.87    367.967682    379.673370
5935.34    378.063019    374.300476
5936.81    332.458405    329.474640
5938.28    330.094971    340.734985
5939.75    340.415100    336.123718
5941.22    353.881165    351.433228
5942.69    338.796387    341.601196
5944.17    380.460480    383.020538
5945.64    393.623779    389.456909
5947.11    324.958771    326.524750
5948.58    349.155487    365.761383
5950.05    369.621460    372.328888
5951.52    375.680023    382.817169
5952.99    380.111328    389.971405
5954.46    326.403961    319.542206
5955.93    378.038330    375.431610
5957.40    392.059143    380.298370
5958.87    298.599304    289.703339
5960.34    350.199921    353.384125
5961.81    350.070190    348.387878
5963.28    335.976532    347.408447
5964.75    361.574402    367.216858
5966.22    356.737732    356.585663
5967.69    394.240082    398.662384
5969.16    384.950226    372.415527
5970.64    377.967560    362.909241
5972.11    395.702484    402.914276
5973.58    393.287079    398.831177
5975.05    369.152740    350.971375
5976.52    354.058929    343.403564
5977.99    348.007965    333.641724
5979.46    350.506500    349.279633
5980.93    334.458099    346.846375
5982.40    345.342865    338.012268
5983.87    347.817444    352.053619
5985.34    338.523956    340.747375
5986.81    362.292603    359.472382
5988.28    363.937378    375.507965
5989.75    352.754578    362.239258
5991.22    376.994324    386.370697
5992.69    377.667847    370.812622
5994.16    410.192474    402.872894
5995.63    398.329041    385.550934
5997.10    356.108459    347.830017
5998.58    359.624054    358.056824
6000.05    371.436798    369.443359
6001.52    365.759521    374.468201
6002.99    366.988892    370.458557
6004.46    405.081207    414.783966
6005.93    425.362701    431.614410
6007.40    383.981873    401.197296
6008.87    404.823761    410.657684
6010.34    391.311920    394.878326
6011.81    368.823853    360.014587
6013.28    379.940796    377.602203
6014.75    407.267700    421.391998
6016.22    379.874939    383.646149
6017.69    377.319702    386.483215
6019.16    375.309937    361.722412
6020.63    393.534485    388.852386
6022.10    392.283752    392.304352
6023.57    391.531158    393.598236
6025.05    386.651398    388.737610
6026.52    405.164856    413.234528
6027.99    355.349945    362.554016
6029.46    346.676819    349.421906
6030.93    348.237000    354.074341
6032.40    396.590515    390.555756
6033.87    375.989807    371.174133
6035.34    351.018829    344.858368
6036.81    408.745697    405.748535
6038.28    368.201721    367.384491
6039.75    366.585541    374.059174
6041.22    362.811127    364.260651
6042.69    358.881744    354.935211
6044.16    376.212402    374.822784
6045.63    425.602234    439.317810
6047.10    367.646179    363.735138
6048.57    372.618195    386.061371
6050.04    410.402740    425.921600
6051.52    377.953339    387.827881
6052.99    362.319153    378.535400
6054.46    428.022736    451.176697
6055.93    349.943573    352.736023
6057.40    341.839447    329.210358
6058.87    383.271210    362.760223
6060.34    324.765106    312.274628
6061.81    303.331055    327.706909
6063.28    353.521515    360.914062
6064.75    295.545990    292.362030
6066.22    379.176788    376.749115
6067.69    398.303192    413.011749
6069.16    358.597656    365.969574
6070.63    399.907990    395.576935
6072.10    414.358490    414.928192
6073.57    358.272766    340.626984
6075.04    368.705292    356.715210
6076.51    398.354156    378.453400
6077.99    370.584167    378.131104
6079.46    380.049744    369.860474
6080.93    436.650269    435.774414
6082.40    364.698303    367.896271
6083.87    386.659027    378.204651
6085.34    384.778595    369.069946
6086.81    375.647125    371.196960
6088.28    379.663239    401.178467
6089.75    380.753784    386.219604
6091.22    368.659912    351.261261
6092.69    443.593933    439.639709
6094.16    391.912140    400.455078
6095.63    407.524628    404.152466
6097.10    385.327332    376.577515
6098.57    385.624664    384.446167
6100.04    372.376251    362.988892
6101.51    355.294952    360.325989
6102.98    380.686096    370.573090
6104.45    413.916779    405.768799
6105.93    396.094482    401.008881
6107.40    391.204834    398.010284
6108.87    397.233551    410.169983
6110.34    393.019409    393.607605
6111.81    373.999634    362.795563
6113.28    394.366577    399.079620
6114.75    350.067902    360.236572
6116.22    376.691376    380.217987
6117.69    403.748627    411.120728
6119.16    383.204956    378.568085
6120.63    379.022369    397.685913
6122.10    408.552734    416.404785
6123.57    434.262665    438.105499
6125.04    412.084778    428.507050
6126.51    400.807312    406.778015
6127.98    399.850983    400.860718
6129.45    367.012878    368.293060
6130.92    385.922821    366.193878
6132.40    396.038300    402.256073
6133.87    399.983673    413.909576
6135.34    364.570496    380.173309
6136.81    362.932770    354.548859
6138.28    368.042145    369.687286
6139.75    353.485840    357.173615
6141.22    387.594391    370.230774
6142.69    390.131805    389.536957
6144.16    341.119476    347.070709
6145.63    392.613037    393.617767
6147.10    399.219482    402.049103
6148.57    396.323151    390.870422
6150.04    390.806824    394.272369
6151.51    346.498413    348.621674
6152.98    377.206085    358.473267
6154.45    394.840790    389.537720
6155.92    339.455872    338.751587
6157.39    367.987396    375.256287
6158.87    374.519958    381.584259
6160.34    372.756775    368.577972
6161.81    416.399231    415.401215
6163.28    386.755280    383.270020
6164.75    366.427032    364.526825
6166.22    399.428986    417.981598
6167.69    377.559509    390.124176
6169.16    301.764069    300.093750
6170.63    315.744324    322.790405
6172.10    289.079132    301.704529
6173.57    281.949097    287.768494
6175.04    301.225159    307.480682
6176.51    277.998962    281.198120
6177.98    281.484009    283.676758
6179.45    292.228668    302.079254
6180.92    290.471832    296.849792
6182.39    301.897125    308.209259
6183.86    318.494568    330.296936
6185.34    332.690613    326.554871
6186.81    320.447083    310.226959
6188.28    327.970337    342.083191
6189.75    336.506317    349.850769
6191.22    360.081177    357.062866
6192.69    408.477539    412.244690
6194.16    377.962036    378.436340
6195.63    367.354095    355.084839
6197.10    390.143311    386.772888
6198.57    396.005066    398.586273
6200.04    366.258331    367.583588
6201.51    366.342163    360.047394
6202.98    381.409546    370.803101
6204.45    347.437958    356.381531
6205.92    339.433533    349.159698
6207.39    356.825409    354.994354
6208.86    399.556396    406.531708
6210.33    358.752502    358.908173
6211.80    383.750854    384.934204
6213.28    408.670624    403.173340
6214.75    346.203217    340.147827
6216.22    389.602753    405.813782
6217.69    364.557068    354.585480
6219.16    351.913147    336.318573
6220.63    414.456421    432.385742
6222.10    395.041412    405.482788
6223.57    351.313629    333.607361
6225.04    362.394928    368.441772
6226.51    397.229279    408.104218
6227.98    393.407745    381.911469
6229.45    361.790283    356.361359
6230.92    363.883026    370.086273
6232.39    406.135223    402.914062
6233.86    395.043854    405.522766
6235.33    376.857452    380.799561
6236.80    418.464050    421.364990
6238.27    361.161377    378.903931
6239.75    380.019501    393.206757
6241.22    407.496887    392.289398
6242.69    371.280273    375.856140
6244.16    346.029358    338.399811
6245.63    373.450134    364.609863
6247.10    340.142242    345.387421
6248.57    360.630493    374.460297
6250.04    380.162720    370.959656
6251.51    398.245941    397.922302
6252.98    411.873230    421.924805
6254.45    422.589539    419.063232
6255.92    428.664124    424.471588
6257.39    409.135162    404.813019
6258.86    418.824463    412.658478
6260.33    398.125916    400.522583
6261.80    360.530273    353.404205
6263.27    427.772308    440.576355
6264.74    401.385010    408.755066
6266.22    414.483124    411.225189
6267.69    366.673401    370.389709
6269.16    373.763733    383.323669
6270.63    367.350830    368.773102
6272.10    403.355103    399.819275
6273.57    350.416138    334.145386
6275.04    359.306396    366.457672
6276.51    379.273987    375.361511
6277.98    357.674316    361.346130
6279.45    316.647186    322.125366
6280.92    364.258606    362.343903
6282.39    363.297424    361.353790
6283.86    380.884979    381.997253
6285.33    410.494720    413.878540
6286.80    329.541626    318.022156
6288.27    398.433868    405.301636
6289.74    398.238342    392.835602
6291.21    382.136108    378.879364
6292.69    341.252625    342.267883
6294.16    415.896667    403.588074
6295.63    358.226074    365.997955
6297.10    337.112732    348.232727
6298.57    429.854065    439.044067
6300.04    348.277008    330.421295
6301.51    398.991760    389.426208
6302.98    429.817535    445.481049
6304.45    305.322632    310.380951
6305.92    362.991333    342.819183
6307.39    375.909424    355.296997
6308.86    336.106110    331.636932
6310.33    341.999451    350.129578
6311.80    359.960236    363.814209
6313.27    410.692200    419.576721
6314.74    371.019165    378.924377
6316.21    353.126831    356.024323
6317.68    322.227112    315.600922
6319.15    410.110718    417.596649
6320.63    395.620667    407.316406
6322.10    390.698822    380.846649
6323.57    380.313568    376.874268
6325.04    440.085480    441.034973
6326.51    411.846649    410.613129
6327.98    412.322968    423.412476
6329.45    389.669464    402.291687
6330.92    336.202850    345.975739
6332.39    395.629852    394.270844
6333.86    376.211304    380.305389
6335.33    380.529846    362.075256
6336.80    427.780853    433.532837
6338.27    418.472534    439.955872
6339.74    411.546204    425.933136
6341.21    406.171448    395.676361
6342.68    370.346680    370.753632
6344.15    373.702240    357.493286
6345.62    404.210907    396.998413
6347.10    393.846649    382.853424
6348.57    406.450195    413.697174
6350.04    406.967743    406.879425
6351.51    371.058075    354.356079
6352.98    389.815643    396.121124
6354.45    432.282654    447.903259
6355.92    393.483856    394.929840
6357.39    366.204590    416.514343
6358.86    384.653595    359.294250
6360.33    432.192108    429.637390
6361.80    396.898743    389.852203
6363.27    358.373535    353.957092
6364.74    409.154083    422.237274
6366.21    404.499146    399.685791
6367.68    371.520081    358.758209
6369.15    376.750549    379.662079
6370.62    436.191223    447.141357
6372.09    401.327576    402.952576
6373.57    354.337280    357.039001
6375.04    379.019379    373.948608
6376.51    376.278381    371.675262
6377.98    363.898407    356.953125
6379.45    378.357727    375.914673
6380.92    387.014587    389.207428
6382.39    376.855774    379.986542
6383.86    388.948578    392.184296
6385.33    436.585663    435.541565
6386.80    381.223877    373.754272
6388.27    390.390808    403.763855
6389.74    410.672516    425.974670
6391.21    331.223175    330.142395
6392.68    365.151947    367.657776
6394.15    343.067505    343.457733
6395.62    369.602692    365.742554
6397.09    421.156891    430.996887
6398.56    363.936951    362.721283
6400.03    338.946625    338.189117
6401.51    345.897797    362.209259
6402.98    348.183624    349.386383
6404.45    353.015442    344.864838
6405.92    384.950195    384.777039
6407.39    369.467163    377.915985
6408.86    361.102081    380.217682
6410.33    381.275024    385.780792
6411.80    414.762878    404.931519
6413.27    421.654602    411.744202
6414.74    376.619019    380.996399
6416.21    373.863953    375.432892
6417.68    366.816315    363.192627
6419.15    362.967590    375.899384
6420.62    368.570496    362.304230
6422.09    398.221008    387.881287
6423.56    381.670502    375.728607
6425.03    375.363342    374.466827
6426.50    397.051453    413.821991
6427.98    365.994263    368.528290
6429.45    391.471985    376.499542
6430.92    394.472778    393.687408
6432.39    357.110687    360.659424
6433.86    344.013062    339.415009
6435.33    400.382813    402.596283
6436.80    408.782166    406.948212
6438.27    391.853455    392.139709
6439.74    358.126221    371.236572
6441.21    384.025269    380.743622
6442.68    387.962921    395.471313
6444.15    365.841156    359.565460
6445.62    403.908051    418.996216
6447.09    350.959381    362.009277
6448.56    334.626617    325.469360
6450.03    430.842926    437.642395
6451.50    402.726166    401.147949
6452.97    367.193573    365.936157
6454.45    337.778198    339.240753
6455.92    358.506897    372.171967
6457.39    350.574066    342.321533
6458.86    362.987579    360.181274
6460.33    348.574249    347.608521
6461.80    340.755310    329.886017
6463.27    360.396271    334.615112
6464.74    314.766479    317.479889
6466.21    373.709045    346.151459
6467.68    358.830444    352.938232
6469.15    345.086182    350.528107
6470.62    371.214172    370.686096
6472.09    332.431183    338.888947
6473.56    331.045532    320.201508
6475.03    323.171387    315.021606
6476.50    325.740753    330.931946
6477.97    409.541626    428.473846
6479.44    288.965302    298.111481
6480.92    425.450012    429.767639
6482.39    382.793671    370.980377
6483.86    380.173950    386.087463
6485.33    379.535492    378.197601
6486.80    339.391846    350.846558
6488.27    327.085022    320.357452
6489.74    371.494019    374.213959
6491.21    386.431671    385.470551
6492.68    353.197571    353.604248
6494.15    333.196716    318.291656
6495.62    342.759613    335.711121
6497.09    335.205078    347.347931
6498.56    369.998810    384.286316
6500.03    416.281555    411.456604
6501.50    367.033142    355.726532
6502.97    358.277405    339.956604
6504.44    383.172638    389.203766
6505.91    348.219177    344.894257
6507.38    379.570618    380.372620
6508.86    336.706238    329.682495
6510.33    345.832855    350.131073
6511.80    380.144287    373.946106
6513.27    352.733582    346.505768
6514.74    369.848022    350.023315
6516.21    309.096863    295.592285
6517.68    312.073883    296.910767
6519.15    349.008392    356.805328
6520.62    309.243469    308.571320
6522.09    316.723602    309.016327
6523.56    368.767456    386.432251
6525.03    375.261993    381.799713
6526.50    341.864838    336.532288
6527.97    383.333466    379.598541
6529.44    345.968109    363.410278
6530.91    323.542938    309.896545
6532.38    330.495880    340.216827
6533.85    364.685028    357.126282
6535.33    389.934875    390.778076
6536.80    290.544250    298.787659
6538.27    318.963654    309.896027
6539.74    326.081543    325.720184
6541.21    344.987061    355.620422
6542.68    336.134552    330.067047
6544.15    362.046509    375.321503
6545.62    348.794434    349.824799
6547.09    319.242249    317.213623
6548.56    319.646423    326.863983
6550.03    329.141205    314.025909
6551.50    340.881531    332.302155
6552.97    339.750031    325.168732
6554.44    331.450806    342.381592
6555.91    334.564972    314.932526
6557.38    315.649109    295.863159
6558.85    381.142822    402.771332
6560.32    337.453308    342.149933
6561.80    339.531952    344.134827
6563.27    336.747742    320.662170
6564.74    332.942322    332.550995
6566.21    342.128021    347.231049
6567.68    338.882446    343.219208
6569.15    370.488251    378.981384
6570.62    336.230560    344.157318
6572.09    348.477936    368.458374
6573.56    365.389130    366.349884
6575.03    358.186462    365.637848
6576.50    355.622314    341.572571
6577.97    409.077881    401.761292
6579.44    426.892273    429.675323
6580.91    373.072205    367.903564
6582.38    319.600891    314.705597
6583.85    357.052917    346.682709
6585.32    345.279266    349.305725
6586.79    374.147797    375.595398
6588.27    330.698334    330.925323
6589.74    380.313568    377.456665
6591.21    366.420502    355.081482
6592.68    350.044220    347.866699
6594.15    370.711548    368.947662
6595.62    341.868774    328.855804
6597.09    349.065247    344.740417
6598.56    358.896362    347.569214
6600.03    344.918030    350.495270
6601.50    325.878143    349.815735
6602.97    355.432953    355.437164
6604.44    336.232819    320.962830
6605.91    350.323914    364.913361
6607.38    381.290894    389.226654
6608.85    353.491394    347.281738
6610.32    373.111420    362.771423
6611.79    347.079742    349.449615
6613.26    358.797424    368.356598
6614.73    387.403687    388.115967
6616.21    362.368683    364.899811
6617.68    347.946869    356.078186
6619.15    335.839233    345.667053
6620.62    370.018555    370.117187
6622.09    417.779694    432.316010
6623.56    376.798096    375.831757
6625.03    338.717072    334.734955
6626.50    350.670410    358.970642
6627.97    380.120758    375.347748
6629.44    326.336945    339.921295
6630.91    328.090149    344.122406
6632.38    363.134277    361.750336
6633.85    373.449554    372.421478
6635.32    399.064728    396.162109
6636.79    387.753052    398.277863
6638.26    346.871857    346.540863
6639.73    351.913452    337.837921
6641.20    365.104523    369.646942
6642.68    342.223755    337.593781
6644.15    370.733002    359.124939
6645.62    374.940155    370.159454
6647.09    347.362335    349.331635
6648.56    330.782349    328.802887
6650.03    346.186768    342.339325
6651.50    342.786224    348.414703
6652.97    342.875610    339.588989
6654.44    373.812256    365.708984
6655.91    375.181213    369.045074
6657.38    406.882751    418.683197
6658.85    413.750977    408.642822
6660.32    375.437164    366.762848
6661.79    374.824677    379.439453
6663.26    376.424164    368.143768
6664.73    348.658081    350.997742
6666.20    373.334045    367.223389
6667.67    371.465149    365.324280
6669.15    332.850342    345.087463
6670.62    328.700836    340.663300
6672.09    330.193268    332.304810
6673.56    338.882355    340.484131
6675.03    319.523987    317.597137
6676.50    352.690277    357.173431
6677.97    386.353149    377.094727
6679.44    341.588867    361.133057
6680.91    365.592041    357.645203
6682.38    374.302399    350.672150
6683.85    382.434814    379.006042
6685.32    405.504120    405.087372
6686.79    373.185608    375.205444
6688.26    362.454834    353.221436
6689.73    397.193848    407.396790
6691.20    379.128448    384.800842
6692.67    364.430603    350.196503
6694.14    370.200195    359.896606
6695.62    345.218262    334.619049
6697.09    369.426239    369.609985
6698.56    388.424561    385.194672
6700.03    370.240784    371.569824
6701.50    363.815887    361.367523
6702.97    338.115143    336.253510
6704.44    353.729980    365.211121
6705.91    400.117889    411.890930
6707.38    389.306885    415.315186
6708.85    345.586029    351.897827
6710.32    417.420013    417.387299
6711.79    385.265778    379.142029
6713.26    401.522186    409.582123
6714.73    379.547791    392.509583
6716.20    369.323029    365.321350
6717.67    321.576691    324.063599
6719.14    344.553619    351.889771
6720.61    374.032196    392.310730
6722.08    378.663757    382.896057
6723.56    331.819580    337.544250
6725.03    366.145203    360.797668
6726.50    371.174713    381.539429
6727.97    380.018982    390.938538
6729.44    388.804535    397.394073
6730.91    364.822235    371.230164
6732.38    378.975647    379.679443
6733.85    369.359283    362.271759
6735.32    351.639221    330.964813
6736.79    355.787109    358.386353
6738.26    393.891327    388.466675
6739.73    357.093628    355.113068
6741.20    376.326019    370.050842
6742.67    342.186462    347.856964
6744.14    346.824188    346.230560
6745.61    389.828278    409.367645
6747.08    349.796600    356.055420
6748.55    359.793915    360.972839
6750.03    385.368622    391.867981
6751.50    367.077454    384.113403
6752.97    353.162933    342.047852
6754.44    339.999115    341.248810
6755.91    298.310089    292.537231
6757.38    386.120728    385.467773
6758.85    341.506073    338.616180
6760.32    345.139618    348.247833
6761.79    375.648804    361.367340
6763.26    413.901794    409.377930
6764.73    321.383667    322.726257
6766.20    342.862854    332.107147
6767.67    355.961975    346.478851
6769.14    368.472107    355.228027
6770.61    356.329346    353.073517
6772.08    389.597961    394.678833
6773.55    367.737915    369.150055
6775.02    405.400360    397.303955
6776.50    351.869781    343.749420
6777.97    404.450348    413.966858
6779.44    346.523010    336.952606
6780.91    372.497559    372.193726
6782.38    404.722839    415.109406
6783.85    415.914276    422.024170
6785.32    375.606995    371.558136
6786.79    368.843323    372.943817
6788.26    395.859863    403.927734
6789.73    357.906097    369.431580
6791.20    371.502533    382.285217
6792.67    366.517853    367.475006
6794.14    375.667572    375.648712
6795.61    395.094086    400.805786
6797.08    370.195923    360.261597
6798.55    323.269806    322.780670
6800.02    369.507996    371.674347
6801.49    368.184357    376.844635
6802.97    385.813751    391.224396
6804.44    349.106079    351.064911
6805.91    405.931030    410.063721
6807.38    351.510712    363.544891
6808.85    350.315857    366.394836
6810.32    308.218903    303.556763
6811.79    341.597504    356.614075
6813.26    373.373840    372.465332
6814.73    314.633942    310.520081
6816.20    332.781494    326.544678
6817.67    363.807159    376.986084
6819.14    345.293091    342.443512
6820.61    409.606110    422.732361
6822.08    367.487030    366.524048
6823.55    389.336060    375.492706
6825.02    360.910797    355.004120
6826.49    335.779053    336.767975
6827.96    375.381317    378.102112
6829.43    385.766846    363.131592
6830.91    339.511536    326.884491
6832.38    351.289795    339.370087
6833.85    354.688293    335.323639
6835.32    361.765930    357.865692
6836.79    347.943726    338.557037
6838.26    332.434265    342.417847
6839.73    373.751495    374.353973
6841.20    329.416504    321.705048
6842.67    321.125916    318.227966
6844.14    397.652496    394.084198
6845.61    385.767334    381.094482
6847.08    345.033691    328.547882
6848.55    372.643860    364.119415
6850.02    414.437744    418.786407
6851.49    368.291016    369.516754
6852.96    343.671448    347.563110
6854.43    379.429291    387.033051
6855.90    391.654633    397.102142
6857.38    361.822357    359.368927
6858.85    395.463531    386.138947
6860.32    385.712189    392.454163
6861.79    393.851257    412.880219
6863.26    408.233582    429.834625
6864.73    350.746765    338.933044
6866.20    301.295013    314.515625
6867.67    288.016541    285.966736
6869.14    245.382782    242.232651
6870.61    255.799393    290.684479
6872.08    257.282074    260.766876
6873.55    270.847168    266.679779
6875.02    259.648865    261.515656
6876.49    271.490479    264.931824
6877.96    278.919678    270.527557
6879.43    286.875885    290.961456
6880.90    341.407684    340.104919
6882.37    335.280090    341.475983
6883.85    332.981689    333.179749
6885.32    358.840851    367.259369
6886.79    328.994446    338.279510
6888.26    290.507080    295.755585
6889.73    330.072296    341.927643
6891.20    331.298340    323.490906
6892.67    324.176483    319.463806
6894.14    308.286072    304.727081
6895.61    294.248169    298.262238
6897.08    349.064270    365.880280
6898.55    354.830048    361.887085
6900.02    339.586609    336.546783
6901.49    334.097626    333.077850
6902.96    354.204010    356.200775
6904.43    348.745117    346.783905
6905.90    328.014771    312.408142
6907.37    354.489838    348.947052
6908.84    349.105164    359.040192
6910.31    367.687347    376.833191
6911.79    374.074860    371.890564
6913.26    313.648071    314.138367
6914.73    282.338318    274.087646
6916.20    312.400513    312.732452
6917.67    290.438416    283.522827
6919.14    371.343964    348.643036
6920.61    349.589233    324.107788
6922.08    349.630249    351.857239
6923.55    369.682434    378.920288
6925.02    365.117065    371.567810
6926.49    352.769562    361.203217
6927.96    318.226776    313.409729
6929.43    308.256470    307.524628
6930.90    342.316376    349.482056
6932.37    330.103302    325.598297
6933.84    295.228210    284.295258
6935.31    338.044617    347.314758
6936.78    372.027435    365.974335
6938.26    353.265686    364.817657
6939.73    317.558868    316.667847
6941.20    312.289001    323.512695
6942.67    356.319305    366.670441
6944.14    353.837860    364.221924
6945.61    304.191010    309.742828
6947.08    330.552338    320.261139
6948.55    386.304138    395.565735
6950.02    376.084686    390.641113
6951.49    331.315216    339.147614
6952.96    326.963470    334.515076
6954.43    316.213104    315.995544
6955.90    302.764801    289.898712
6957.37    320.112640    319.477356
6958.84    336.067352    325.261444
6960.31    361.807892    345.059967
6961.78    290.262299    283.652252
6963.25    329.392487    326.875366
6964.73    345.602814    348.553528
6966.20    321.350952    324.923706
6967.67    379.999908    389.585175
6969.14    367.797821    369.773926
6970.61    342.816742    344.605988
6972.08    340.145111    344.705414
6973.55    352.373901    347.260345
6975.02    343.052765    343.501556
6976.49    332.732941    324.613953
6977.96    349.589966    341.039978
6979.43    358.853455    353.485168
6980.90    320.772095    310.415771
6982.37    344.612244    361.127319
6983.84    249.891174    238.827942
6985.31    298.267975    286.862122
6986.78    291.741211    284.803894
6988.25    317.682098    316.420227
6989.72    290.306183    291.309845
6991.20    333.891541    337.430634
6992.67    329.265381    314.380463
6994.14    336.987183    320.882446
6995.61    334.272644    319.939850
6997.08    312.327820    315.759583
6998.55    354.275879    373.401642
7000.02    296.915497    278.984222
7001.49    292.847931    280.706421
7002.96    329.012756    323.583252
7004.43    326.196899    342.337067
7005.90    324.178162    335.940460
7007.37    345.432098    341.172028
7008.84    348.325867    352.265533
7010.31    352.646149    351.917267
7011.78    352.510529    356.813141
7013.25    331.613831    344.450073
7014.72    318.200958    301.568176
7016.19    318.343231    334.938995
7017.66    317.541168    312.490967
7019.14    352.001434    340.161133
7020.61    315.312042    298.734314
7022.08    312.955933    318.725372
7023.55    352.059387    353.370514
7025.02    350.520966    347.170502
7026.49    311.210175    309.912140
7027.96    371.436676    347.348694
7029.43    315.706451    320.392609
7030.90    370.925751    378.458588
7032.37    395.426666    388.846527
7033.84    358.353485    370.623016
7035.31    324.204681    331.590698
7036.78    333.406982    324.052917
7038.25    342.715424    328.369904
7039.72    388.316620    379.195099
7041.19    309.938904    309.320404
7042.66    364.211578    372.015747
7044.13    332.503967    324.427124
7045.61    301.044006    309.609070
7047.08    330.576935    318.714813
7048.55    335.017181    339.300537
7050.02    306.007080    303.560730
7051.49    355.321045    348.137146
7052.96    319.832397    327.275543
7054.43    337.412415    340.679413
7055.90    367.040436    364.056610
7057.37    341.197449    331.920929
7058.84    361.565765    375.407867
7060.31    364.427521    359.824707
7061.78    320.703461    324.888702
7063.25    341.646851    340.184479
7064.72    332.048187    322.073761
7066.19    336.737701    332.847015
7067.66    339.514954    356.007935
7069.13    308.465454    295.591339
7070.60    303.546204    293.128479
7072.08    359.296204    361.053467
7073.55    359.573700    379.942047
7075.02    373.520660    371.889404
7076.49    330.932190    329.510712
7077.96    360.236450    377.561859
7079.43    331.319702    336.859283
7080.90    345.801636    352.203369
7082.37    324.691345    342.277557
7083.84    351.189667    354.165710
7085.31    360.508209    351.221649
7086.78    332.802429    323.593964
7088.25    383.559143    375.466278
7089.72    295.525299    288.894348
7091.19    301.860168    294.676666
7092.66    371.019806    386.959045
7094.13    347.104736    355.660645
7095.60    383.290710    398.001251
7097.07    361.800446    349.972778
7098.55    313.913116    299.892792
7100.02    333.097565    339.719849
7101.49    333.574066    339.939880
7102.96    319.483948    307.104462
7104.43    338.385376    341.120911
7105.90    366.678314    362.445404
7107.37    350.193115    342.931793
7108.84    352.065369    361.032257
7110.31    350.646118    364.187561
7111.78    340.610016    363.619629
7113.25    296.249084    296.839783
7114.72    339.092072    352.991211
7116.19    317.140747    307.095062
7117.66    277.848999    279.940552
7119.13    335.148102    335.337921
7120.60    338.835876    348.157532
7122.07    356.121857    349.198151
7123.54    362.085968    360.990814
7125.01    357.773193    353.407623
7126.49    316.116150    322.233582
7127.96    284.724518    292.992249
7129.43    376.466736    383.546906
7130.90    346.610565    347.312592
7132.37    354.361603    366.402008
7133.84    283.422180    279.781342
7135.31    304.668854    301.055664
7136.78    375.182312    383.817535
7138.25    360.504486    372.413788
7139.72    346.838959    348.822937
7141.19    369.349854    378.531616
7142.66    309.928497    307.781494
7144.13    341.507385    338.884857
7145.60    370.017212    373.480682
7147.07    332.767883    332.939087
7148.54    331.119934    338.131836
7150.01    336.677460    335.651947
7151.48    346.462921    350.035400
7152.96    331.201874    330.558929
7154.43    328.879852    319.935791
7155.90    350.628906    355.051727
7157.37    349.529724    362.001526
7158.84    331.512238    338.852966
7160.31    297.880371    310.913910
7161.78    318.275299    323.040161
7163.25    365.161713    365.419006
7164.72    355.070953    375.567719
7166.19    313.937531    312.827820
7167.66    327.973633    310.504730
7169.13    327.266205    321.002960
7170.60    312.167419    320.584503
7172.07    288.496277    323.831085
7173.54    302.865875    392.197418
7175.01    310.648437    623.967529
7176.48    309.715851    2150.218262
7177.95    326.346680    2470.195313
7179.43    276.476379    1090.306763
7180.90    271.703491    471.962311
7182.37    324.366852    385.242859
7183.84    295.716431    292.573792
7185.31    282.188568    271.696075
7186.78    294.458466    290.986664
7188.25    277.172485    280.060211
7189.72    323.576385    325.004974
7191.19    325.624939    326.521851
7192.66    287.652557    278.181763
7194.13    275.711151    274.488007
7195.60    258.218140    268.020294
7197.07    282.998962    297.763275
7198.54    292.747559    291.853455
7200.01    283.130188    277.793854
7201.48    341.029510    344.370514
7202.95    337.051605    337.965698
7204.42    243.016327    243.963211
7205.90    303.908844    304.070251
7207.37    351.859100    346.569214
7208.84    302.384491    297.726257
7210.31    335.414337    336.915710
7211.78    370.842712    373.480927
7213.25    340.821747    338.719147
7214.72    308.344025    304.732178
7216.19    319.711060    329.887482
7217.66    342.439850    331.892303
7219.13    347.996399    357.686768
7220.60    351.714996    371.370697
7222.07    336.759644    324.967377
7223.54    308.429474    300.577637
7225.01    353.104980    360.497986
7226.48    354.816101    356.874969
7227.95    337.134430    335.730743
7229.42    331.729309    333.522125
7230.89    341.184143    346.069794
7232.36    319.408691    334.316071
7233.84    256.572632    274.194641
7235.31    299.590271    305.933960
7236.78    363.239502    379.707245
7238.25    388.588593    390.019379
7239.72    319.335144    295.400391
7241.19    287.383972    290.808441
7242.66    285.561218    299.379974
7244.13    361.407227    372.734680
7245.60    319.509735    335.206146
7247.07    317.027222    296.657013
7248.54    262.003021    263.816803
7250.01    275.347534    287.179504
7251.48    303.396362    307.275024
7252.95    300.789520    292.095551
7254.42    298.385284    284.980560
7255.89    298.469086    296.499878
7257.36    311.486816    291.116119
7258.83    288.519196    291.999146
7260.31    315.531036    311.997345
7261.78    347.488800    341.643463
7263.25    300.917358    305.881531
7264.72    360.306030    364.740326
7266.19    320.652710    316.285797
7267.66    333.816772    329.141846
7269.13    343.592468    346.201996
7270.60    297.394897    283.047974
7272.07    306.001007    302.085114
7273.54    331.794952    356.518463
7275.01    292.353973    306.269073
7276.48    290.703888    281.083221
7277.95    321.303955    322.895905
7279.42    306.383148    276.636078
7280.89    316.565002    328.233948
7282.36    320.524597    321.523865
7283.83    309.381409    300.865173
7285.30    295.725372    309.449005
7286.78    285.706024    296.072723
7288.25    306.969574    294.129211
7289.72    241.831497    234.984955
7291.19    311.048492    321.391724
7292.66    325.755157    334.714508
7294.13    314.206451    339.574951
7295.60    344.299683    360.910217
7297.07    319.476410    318.410645
7298.54    322.818146    311.651215
7300.01    318.188873    320.972168
7301.48    312.345367    332.577148
7302.95    320.009735    309.743652
7304.42    290.561951    307.130371
7305.89    342.047150    333.651764
7307.36    322.609344    298.770935
7308.83    299.798615    305.883911
7310.30    312.648041    308.074249
7311.77    278.966522    295.127869
7313.25    357.676971    368.974609
7314.72    300.792297    309.702240
7316.19    303.747314    287.513214
7317.66    327.647766    305.683289
7319.13    304.656525    301.261292
7320.60    291.596619    300.800385
7322.07    309.614227    297.265991
7323.54    306.388397    302.529999
7325.01    359.128876    359.273071
7326.48    306.987396    309.983978
7327.95    311.264648    302.371674
7329.42    339.917694    348.236511
7330.89    313.880493    326.577972
7332.36    304.152679    286.928253
7333.83    274.260193    277.987091
7335.30    314.108521    322.224213
7336.77    327.511627    307.203979
7338.24    335.235138    356.073395
7339.71    320.104675    321.900391
7341.19    310.118530    333.183746
7342.66    333.105530    333.237518
7344.13    276.110657    257.152954
7345.60    266.947327    284.046295
7347.07    258.197571    259.784973
7348.54    324.026520    325.593262
7350.01    313.721771    309.912994
7351.48    306.631348    303.074341
7352.95    328.752960    334.263977
7354.42    326.898376    332.216705
7355.89    332.596558    332.413269
7357.36    346.169281    347.667664
7358.83    315.327118    296.717957
7360.30    363.677795    375.419769
7361.77    334.286499    336.320831
7363.24    313.111725    321.833893
7364.71    339.313293    319.465332
7366.18    343.285065    351.219757
7367.66    355.579163    360.235504
7369.13    303.739288    306.317139
7370.60    283.071075    281.028625
7372.07    281.984192    279.538330
7373.54    308.059082    307.939331
7375.01    328.019836    316.109528
7376.48    350.857941    342.172485
7377.95    343.406830    337.427063
7379.42    366.465118    371.224365
7380.89    316.776550    303.650696
7382.36    315.965485    312.580139
7383.83    296.791931    286.456665
7385.30    279.222656    270.771149
7386.77    367.821228    373.158356
7388.24    321.001160    320.164764
7389.71    293.615967    305.156097
7391.18    317.822266    314.632050
7392.65    355.348328    363.348541
7394.13    300.794678    300.682220
7395.60    255.306412    245.169159
7397.07    297.909851    289.577911
7398.54    303.584534    294.253510
7400.01    281.104156    276.706879
7401.48    356.062927    356.597595
7402.95    277.118469    266.779907
7404.42    310.616364    308.556824
7405.89    302.405426    306.054504
7407.36    267.339081    276.629883
7408.83    253.765503    251.079041
7410.30    326.453400    318.021545
7411.77    310.063934    310.009399
7413.24    296.788483    285.808258
7414.71    290.734680    295.925293
7416.18    262.943085    250.368011
7417.65    334.636719    332.996857
7419.12    319.954712    335.795563
7420.59    294.173248    281.744385
7422.07    299.216644    295.477631
7423.54    290.359131    300.708710
7425.01    291.214844    278.292847
7426.48    305.542511    315.714203
7427.95    328.527588    333.277496
7429.42    286.821167    300.077820
7430.89    298.322968    282.604126
7432.36    318.729828    321.260162
7433.83    273.025238    262.814728
7435.30    320.557159    324.734039
7436.77    305.134888    299.600952
7438.24    245.372147    232.645233
7439.71    263.930481    273.154114
7441.18    257.753296    252.930283
7442.65    271.978394    278.714905
7444.12    276.151978    291.754303
7445.59    236.957642    236.212967
7447.06    302.266754    305.013580
7448.54    308.477875    292.405518
7450.01    279.330444    276.620209
7451.48    284.900360    280.434631
7452.95    278.125763    287.187897
7454.42    264.825500    267.344055
7455.89    246.956573    238.616928
7457.36    290.004120    293.520203
7458.83    233.492371    216.720856
7460.30    301.751587    287.758179
7461.77    255.883606    248.910080
7463.24    298.412354    299.400635
7464.71    308.114807    328.334808
7466.18    248.931549    267.072144
7467.65    289.233246    307.368164
7469.12    282.152222    280.896332
7470.59    257.508026    263.877319
7472.06    279.206421    296.164917
7473.53    281.477631    293.002502
7475.01    266.657562    293.859253
7476.48    276.160736    280.252014
7477.95    230.563553    238.291748
7479.42    272.671326    272.942200
7480.89    269.021301    274.638397
7482.36    294.720642    298.288422
7483.83    289.597046    289.469818
7485.30    297.726990    309.534973
7486.77    288.686371    285.170441
7488.24    292.934540    295.110199
7489.71    245.272568    226.025909
7491.18    250.551819    249.986328
7492.65    296.185028    283.296844
7494.12    267.958954    272.603088
7495.59    260.021698    267.467621
7497.06    276.882477    268.267975
7498.53    262.182159    250.036224
7500.00    276.393738    249.802139
7501.48    273.062317    263.181580
7502.95    279.746002    274.799683
7504.42    282.081696    295.247223
7505.89    271.153168    274.305878
7507.36    248.142975    238.111282
7508.83    284.240875    293.055573
7510.30    278.920959    270.979950
7511.77    266.279602    264.195435
7513.24    240.804260    240.220840
7514.71    320.771851    312.843719
7516.18    293.967133    308.939178
7517.65    285.465240    282.073639
7519.12    234.429001    233.061966
7520.59    253.170105    267.384399
7522.06    287.280975    298.473785
7523.53    266.822479    281.204437
7525.00    299.740601    303.815704
7526.47    288.038727    288.085846
7527.94    284.065094    283.364319
