#Wavelength     Flux    Sky Spectrum 
#[Angstrom]   [Counts]     [Counts]
4609.56    77.256874    42.445557
4610.76    87.048264    37.975704
4611.96    80.361252    25.739759
4613.16    67.107376    33.282593
4614.36    67.672768    31.185242
4615.56    82.940552    33.099308
4616.76    82.526062    38.383053
4617.96    60.476189    37.079639
4619.16    64.203674    41.750580
4620.36    81.845383    38.102737
4621.56    85.747963    37.433460
4622.75    68.992462    42.694851
4623.95    56.802612    42.046421
4625.15    76.094193    41.177208
4626.35    75.430252    40.087048
4627.55    74.859360    35.164227
4628.75    81.670090    29.442533
4629.95    65.389389    32.233711
4631.15    77.281387    41.904617
4632.35    85.141258    33.879524
4633.55    78.033272    28.096272
4634.75    80.768074    36.340279
4635.95    95.119049    31.587870
4637.15    79.143593    31.431280
4638.35    74.301056    35.624668
4639.55    75.523506    39.063705
4640.75    72.396088    41.179073
4641.95    98.290184    41.392887
4643.15    99.150154    36.242844
4644.35    85.135437    28.053679
4645.55    88.226768    23.086100
4646.75    103.704422    24.264988
4647.95    99.738243    30.227980
4649.15    89.519554    43.068325
4650.35    86.675179    43.502045
4651.55    92.648643    30.262917
4652.75    99.302200    23.080074
4653.95    94.579285    30.682976
4655.15    73.265068    34.184849
4656.35    67.056129    25.747011
4657.54    70.841026    21.926405
4658.74    70.724472    30.740116
4659.94    80.970680    32.548676
4661.14    73.150337    26.068644
4662.34    92.855408    19.958033
4663.54    95.064613    26.449133
4664.74    60.728794    34.634232
4665.94    75.694099    26.582901
4667.14    71.962250    42.829403
4668.34    90.619553    45.184906
4669.54    104.580658    36.458363
4670.74    80.485428    40.923512
4671.94    71.534439    44.119278
4673.14    81.883240    39.125420
4674.34    72.383316    34.107605
4675.54    91.704086    32.480549
4676.74    118.868103    25.501022
4677.94    77.177902    14.031746
4679.14    81.287117    24.301596
4680.34    100.019241    31.922903
4681.54    95.421715    28.799196
4682.74    85.753563    25.936523
4683.94    94.092911    30.078245
4685.14    98.757980    35.324528
4686.34    105.554047    28.311468
4687.54    97.117546    22.070089
4688.74    82.495255    23.782970
4689.94    86.746414    27.341017
4691.14    97.114487    33.013710
4692.33    96.646828    37.687897
4693.53    89.961761    31.817198
4694.73    91.053703    24.582582
4695.93    94.423645    25.070194
4697.13    84.610489    26.529982
4698.33    84.915886    33.546444
4699.53    92.198685    28.924263
4700.73    103.801949    26.046530
4701.93    102.729218    36.536270
4703.13    88.913940    42.036968
4704.33    111.225662    32.768738
4705.53    86.134834    31.618126
4706.73    56.373466    35.898956
4707.93    72.497406    39.174465
4709.13    108.529259    36.029240
4710.33    126.624298    18.378075
4711.53    100.207428    21.717829
4712.73    105.042908    29.568308
4713.93    117.263771    32.206097
4715.13    91.942558    35.352482
4716.33    80.751862    36.857479
4717.53    93.841949    37.843952
4718.73    102.300446    26.483839
4719.93    103.845604    24.587191
4721.13    97.556206    38.160942
4722.33    87.105713    41.864208
4723.53    95.317299    34.434738
4724.73    64.160522    38.525276
4725.93    67.371773    36.077209
4727.12    110.788368    26.614500
4728.32    125.768143    24.959719
4729.52    109.147018    25.750679
4730.72    89.642860    29.750759
4731.92    90.651260    32.352890
4733.12    115.880608    30.818642
4734.32    133.394257    28.959745
4735.52    114.690788    34.124374
4736.72    95.247147    44.681759
4737.92    105.999596    37.981613
4739.12    99.546967    38.179489
4740.32    80.893448    46.453663
4741.52    93.935127    40.659843
4742.72    112.526665    28.764519
4743.92    87.663857    28.314661
4745.12    82.255226    38.509846
4746.32    109.445908    40.539070
4747.52    120.459694    34.265488
4748.72    98.835365    36.025681
4749.92    89.922791    37.402847
4751.12    93.915047    34.382534
4752.32    108.043221    40.143028
4753.52    112.196434    46.251053
4754.72    108.058342    40.188633
4755.92    120.574387    37.670807
4757.12    97.261429    43.498665
4758.32    100.411644    39.198891
4759.52    111.827835    31.882786
4760.71    104.011681    34.161697
4761.91    118.526917    36.956326
4763.11    150.095261    30.621576
4764.31    112.024384    33.578468
4765.51    98.528915    40.235168
4766.71    105.644562    40.045200
4767.91    84.591263    38.244312
4769.11    104.049957    40.372887
4770.31    115.123039    30.439043
4771.51    112.286621    28.609762
4772.71    108.950798    28.616131
4773.91    103.754326    28.376644
4775.11    92.755043    34.982773
4776.31    91.427559    28.448261
4777.51    103.627396    34.039330
4778.71    105.016769    39.719681
4779.91    98.827309    34.095333
4781.11    98.847961    30.425650
4782.31    97.814240    39.330971
4783.51    107.488144    43.354164
4784.71    132.592194    34.888920
4785.91    120.300171    31.644640
4787.11    91.912918    36.923531
4788.31    108.827354    36.960564
4789.51    117.949379    34.921387
4790.71    113.414024    29.114742
4791.91    97.176201    37.965965
4793.11    95.965096    41.540287
4794.31    115.489357    27.428364
4795.50    117.609039    26.758085
4796.70    105.951958    30.654398
4797.90    123.199593    30.671499
4799.10    121.456055    42.542618
4800.30    99.527740    44.945869
4801.50    109.809906    20.172651
4802.70    119.581367    24.153313
4803.90    120.377846    40.379810
4805.10    142.076904    30.756392
4806.30    153.103683    19.560198
4807.50    133.285019    27.878246
4808.70    125.371613    27.950180
4809.90    117.018494    32.387096
4811.10    118.956253    36.972649
4812.30    126.538910    38.316742
4813.50    134.832886    35.787945
4814.70    138.568100    31.925396
4815.90    124.471443    32.289528
4817.10    126.143372    26.730108
4818.30    138.904449    17.178125
4819.50    144.903412    16.917719
4820.70    148.561813    24.924770
4821.90    160.617935    25.144051
4823.10    158.095840    22.731155
4824.30    138.349152    26.348656
4825.50    118.882927    26.983265
4826.70    129.871552    23.539082
4827.90    152.682495    24.010273
4829.10    122.136337    25.086149
4830.29    119.810394    32.922714
4831.49    127.607689    29.358101
4832.69    127.491928    21.558538
4833.89    133.263947    24.810719
4835.09    138.185608    28.888565
4836.29    127.553818    28.411247
4837.49    114.355209    28.138870
4838.69    120.171692    33.210102
4839.89    135.813004    35.072121
4841.09    133.579636    27.834646
4842.29    120.369141    27.030005
4843.49    131.613846    25.128531
4844.69    151.149918    23.389982
4845.89    148.425339    24.719063
4847.09    138.634247    23.199963
4848.29    153.441574    16.919750
4849.49    142.598694    25.045641
4850.69    122.814987    29.235575
4851.89    141.109070    24.689970
4853.09    159.557877    25.325146
4854.29    129.038544    31.998615
4855.49    140.973999    26.238512
4856.69    152.422333    25.531528
4857.89    136.425537    27.373079
4859.09    127.588081    22.867519
4860.29    142.789124    16.763332
4861.49    139.520493    17.713877
4862.69    129.908371    19.430271
4863.89    132.720825    25.861423
4865.08    137.213730    30.861847
4866.28    130.480820    31.402760
4867.48    124.042717    34.060905
4868.68    131.008606    28.457163
4869.88    150.079514    21.186520
4871.08    144.733932    21.170914
4872.28    126.351440    22.457047
4873.48    126.836082    19.003532
4874.68    116.268173    21.485088
4875.88    157.387466    15.173965
4877.08    155.888046    26.338804
4878.28    133.626907    35.138851
4879.48    156.355057    17.994360
4880.68    140.017670    18.384253
4881.88    149.868057    20.572004
4883.08    134.611801    22.527550
4884.28    123.210037    24.474619
4885.48    138.683121    28.147833
4886.68    120.728287    35.800545
4887.88    127.338341    32.294765
4889.08    133.164703    25.938616
4890.28    146.530914    23.237621
4891.48    159.285126    24.720917
4892.68    142.169113    27.016312
4893.88    139.439606    24.349195
4895.08    138.893387    31.657560
4896.28    131.779358    27.049740
4897.48    130.301407    16.263378
4898.68    138.171463    23.319187
4899.87    139.568909    26.816519
4901.07    150.224579    27.572739
4902.27    126.759262    28.883366
4903.47    111.902527    30.399084
4904.67    147.678619    29.775249
4905.87    157.849823    25.700272
4907.07    155.797882    22.565647
4908.27    129.524139    30.339138
4909.47    133.409576    33.825184
4910.67    172.134552    25.116154
4911.87    165.704681    22.327570
4913.07    186.035080    17.338760
4914.27    181.971207    16.014647
4915.47    163.348511    19.911013
4916.67    158.306625    24.834688
4917.87    144.630692    27.105043
4919.07    146.434769    23.850370
4920.27    175.279037    28.471561
4921.47    179.483307    29.228481
4922.67    175.814972    22.067902
4923.87    211.627075    22.875261
4925.07    189.974258    25.540205
4926.27    177.512131    20.526533
4927.47    179.404449    21.703100
4928.67    175.738541    26.932188
4929.87    177.002716    23.000072
4931.07    169.037506    27.950775
4932.27    138.486862    28.036777
4933.47    134.475449    27.945650
4934.66    160.325226    29.884800
4935.86    169.010147    26.988268
4937.06    166.866928    27.669468
4938.26    156.309219    35.501469
4939.46    145.002914    39.849216
4940.66    155.547882    33.417755
4941.86    182.145081    24.959114
4943.06    178.513031    27.403126
4944.26    199.405136    26.638632
4945.46    188.553909    24.214827
4946.66    164.539749    23.836823
4947.86    181.951721    24.035275
4949.06    159.531952    26.855879
4950.26    179.611481    24.812107
4951.46    193.161163    22.204414
4952.66    175.902771    23.704292
4953.86    170.891708    29.102427
4955.06    165.376709    35.690102
4956.26    201.268524    25.343273
4957.46    189.032654    20.669483
4958.66    159.245407    28.578671
4959.86    194.002853    29.999678
4961.06    175.192993    27.814785
4962.26    205.844879    25.084110
4963.46    204.497589    29.502840
4964.66    162.526245    33.674908
4965.86    188.270508    27.110743
4967.06    215.350952    25.445845
4968.26    208.325836    27.879129
4969.45    197.700241    26.479750
4970.65    187.159592    27.462284
4971.85    165.872406    36.823338
4973.05    193.568436    33.115837
4974.25    212.505646    28.388712
4975.45    178.660355    25.541273
4976.65    147.450775    28.895351
4977.85    183.030258    39.993145
4979.05    201.124710    28.623692
4980.25    203.311981    21.768631
4981.45    211.406967    23.019381
4982.65    210.658981    26.212698
4983.85    184.771683    35.918118
4985.05    188.788803    27.152252
4986.25    201.265808    22.773167
4987.45    211.485275    35.879417
4988.65    216.196030    42.118225
4989.85    190.328949    23.837564
4991.05    160.665802    35.962242
4992.25    183.745010    37.289371
4993.45    215.716904    22.852150
4994.65    197.425735    25.063875
4995.85    186.794373    24.766815
4997.05    183.767410    27.834101
4998.25    173.239227    24.702703
4999.45    165.008759    22.201450
5000.65    173.655014    32.761650
5001.85    179.105194    31.997540
5003.05    183.152847    30.881792
5004.24    198.286148    27.222267
5005.44    198.003357    21.962347
5006.64    172.885864    25.790901
5007.84    226.738159    23.860929
5009.04    206.635498    24.009365
5010.24    175.956940    24.114813
5011.44    223.615051    22.216043
5012.64    206.373276    30.222576
5013.84    201.884583    36.572174
5015.04    206.218475    35.549591
5016.24    206.363266    30.854815
5017.44    214.935837    28.020393
5018.64    216.498428    27.775509
5019.84    230.737366    28.503923
5021.04    215.558182    26.622929
5022.24    195.478210    22.386835
5023.44    235.665924    20.851110
5024.64    225.214401    24.205626
5025.84    227.292145    28.178999
5027.04    240.956238    28.645426
5028.24    226.376984    26.967705
5029.44    218.473953    27.217958
5030.64    189.424316    24.145397
5031.84    204.841110    17.587336
5033.04    238.852188    18.885965
5034.24    200.974503    28.906618
5035.44    161.697052    22.792316
5036.64    178.051758    28.680532
5037.84    203.715729    34.231979
5039.03    200.998611    26.702850
5040.23    202.088486    30.879662
5041.43    180.655365    33.698769
5042.63    186.443375    24.499334
5043.83    203.721237    20.431381
5045.03    179.792099    31.850346
5046.23    167.123703    27.025692
5047.43    196.863373    20.284031
5048.63    210.726334    23.527996
5049.83    197.622864    30.488380
5051.03    218.525452    31.735792
5052.23    206.895767    34.336449
5053.43    197.822006    30.280697
5054.63    217.021103    22.818487
5055.83    232.939453    23.867788
5057.03    217.492264    29.421005
5058.23    176.694000    32.723312
5059.43    163.205444    30.366631
5060.63    190.858337    25.665812
5061.83    208.396942    24.233515
5063.03    214.218369    22.429167
5064.23    225.014633    22.817205
5065.43    222.623032    28.988480
5066.63    201.871765    34.198631
5067.83    224.496658    24.469831
5069.03    215.591476    24.212399
5070.23    201.774200    29.926479
5071.43    232.053970    26.673735
5072.62    248.170990    23.431973
5073.82    220.039276    29.807232
5075.02    233.458771    32.559540
5076.22    267.286865    28.666906
5077.42    229.124466    28.330038
5078.62    230.771805    23.091208
5079.82    231.079407    24.419651
5081.02    209.078003    31.855968
5082.22    200.966904    35.973495
5083.42    210.521484    38.265114
5084.62    202.359863    35.308678
5085.82    201.087311    32.640369
5087.02    222.718552    31.647575
5088.22    232.021576    26.457798
5089.42    235.354828    28.028080
5090.62    222.748245    30.629860
5091.82    198.976685    31.440525
5093.02    191.907196    34.004761
5094.22    210.962402    31.584763
5095.42    211.317535    32.777893
5096.62    198.171387    38.540020
5097.82    207.654297    38.134342
5099.02    229.659683    26.013000
5100.22    234.731689    22.318504
5101.42    241.603851    26.336060
5102.62    252.563828    29.240280
5103.82    232.754547    32.711758
5105.02    235.998367    31.869480
5106.22    234.612427    31.380001
5107.41    222.302734    33.113453
5108.61    237.389664    33.604691
5109.81    236.099167    36.414520
5111.01    237.330902    25.545052
5112.21    238.983704    15.163451
5113.41    227.621674    25.411291
5114.61    250.985123    23.957626
5115.81    280.307556    22.083248
5117.01    268.127014    26.255463
5118.21    225.523254    28.028866
5119.41    226.709961    25.157902
5120.61    242.385040    27.853466
5121.81    231.752228    33.643559
5123.01    205.481018    34.966206
5124.21    209.783966    32.742462
5125.41    216.718323    30.542118
5126.61    207.067108    30.080366
5127.81    209.690521    34.887135
5129.01    250.108307    42.756508
5130.21    239.028519    29.978565
5131.41    224.943405    23.920992
5132.61    236.364929    32.601933
5133.81    231.902542    28.409950
5135.01    250.716843    21.511471
5136.21    253.549088    23.640141
5137.41    236.174149    31.060125
5138.61    237.640915    31.559271
5139.81    236.161118    25.187027
5141.01    232.161575    22.816505
5142.20    234.322800    22.184458
5143.40    243.985962    17.970161
5144.60    249.497849    23.906675
5145.80    222.291565    32.625591
5147.00    208.356888    32.832596
5148.20    236.516159    27.930830
5149.40    219.977020    34.106644
5150.60    225.579025    30.138176
5151.80    236.197968    24.196896
5153.00    211.419128    30.859249
5154.20    221.754547    29.835293
5155.40    245.274719    29.687790
5156.60    259.143951    30.840797
5157.80    263.966309    28.045443
5159.00    263.460754    27.232021
5160.20    251.517288    35.574497
5161.40    226.873718    39.024426
5162.60    214.000000    31.000000
5163.80    240.354309    31.682486
5165.00    228.974304    34.542160
5166.20    206.560822    30.600300
5167.40    227.289978    21.941853
5168.60    257.422089    19.464558
5169.80    257.009552    22.322664
5171.00    224.930054    26.144054
5172.20    201.012421    26.980410
5173.40    226.346024    24.733023
5174.60    255.988693    28.150690
5175.80    264.682343    26.571007
5176.99    255.850815    19.002554
5178.19    240.960205    26.853495
5179.39    241.598434    27.703371
5180.59    232.893799    25.532576
5181.79    203.959106    32.013245
5182.99    198.146057    34.710552
5184.19    204.461243    26.085115
5185.39    210.942947    25.789886
5186.59    212.056503    36.015347
5187.79    204.577698    23.054840
5188.99    208.913757    20.236631
5190.19    209.311981    27.137463
5191.39    203.572922    26.037529
5192.59    234.398468    26.169249
5193.79    244.095367    24.462656
5194.99    223.809189    23.174103
5196.19    211.066223    26.729542
5197.39    216.329300    31.173754
5198.59    207.494919    31.483030
5199.79    207.909698    27.991350
5200.99    241.759109    26.721106
5202.19    251.747818    32.006184
5203.39    252.581268    26.746843
5204.59    271.437897    18.615280
5205.79    286.151855    24.257900
5206.99    229.836548    27.082148
5208.19    211.594574    27.155672
5209.39    246.619995    31.334202
5210.59    253.428833    37.288334
5211.78    262.815247    28.814011
5212.98    275.474365    23.560509
5214.18    277.247223    28.644190
5215.38    266.884216    32.027321
5216.58    262.625824    37.558342
5217.78    265.596283    34.833565
5218.98    261.894501    25.548841
5220.18    250.460388    26.212875
5221.38    276.909302    28.169903
5222.58    286.066254    29.989983
5223.78    256.483521    34.157581
5224.98    260.269257    37.600319
5226.18    262.298584    32.216263
5227.38    275.911163    27.995491
5228.58    297.309601    31.925079
5229.78    260.457794    31.461523
5230.98    257.730865    31.371861
5232.18    274.414459    29.982626
5233.38    253.362106    25.964525
5234.58    254.491989    30.664387
5235.78    253.902908    33.117645
5236.98    257.817352    29.190195
5238.18    284.064301    27.516237
5239.38    265.146942    33.229851
5240.58    238.049545    36.124550
5241.78    236.390686    32.600735
5242.98    241.547485    30.839985
5244.18    247.903824    32.857292
5245.38    261.853058    36.226166
5246.57    272.923523    38.016750
5247.77    256.406372    37.034275
5248.97    240.659500    33.167656
5250.17    270.095428    30.848204
5251.37    322.986603    31.096945
5252.57    299.926483    28.718113
5253.77    265.971924    35.844799
5254.97    277.544342    38.188431
5256.17    311.267639    24.465233
5257.37    297.094208    34.159386
5258.57    269.597778    41.041042
5259.77    274.657654    33.414753
5260.97    305.713959    33.043812
5262.17    311.611786    30.720724
5263.37    297.594147    29.235847
5264.57    287.912079    34.105331
5265.77    283.229126    40.009590
5266.97    269.795776    36.107990
5268.17    255.240204    35.986561
5269.37    262.512054    45.070320
5270.57    299.828400    34.106632
5271.77    314.935638    29.701475
5272.97    305.089905    36.550850
5274.17    298.870972    34.550007
5275.37    261.727020    34.224316
5276.57    251.570038    37.566444
5277.77    265.194580    37.782192
5278.97    221.782410    31.028547
5280.17    214.620102    32.829571
5281.36    243.923553    43.347733
5282.56    249.160538    44.924969
5283.76    222.789169    23.468496
5284.96    226.478119    23.327927
5286.16    258.599884    37.736687
5287.36    274.729889    28.989929
5288.56    294.133423    25.237078
5289.76    294.000732    33.523529
5290.96    265.517578    44.395737
5292.16    244.926025    46.960541
5293.36    261.825531    37.487305
5294.56    274.696686    32.597412
5295.76    264.020599    38.916180
5296.96    298.055847    33.008751
5298.16    313.798431    30.394854
5299.36    301.460571    29.954742
5300.56    307.237976    21.410936
5301.76    296.105408    34.208588
5302.96    293.421143    37.735558
5304.16    313.125366    19.912498
5305.36    318.697662    22.909533
5306.56    320.699432    36.585491
5307.76    316.238831    41.626942
5308.96    301.266418    34.025658
5310.16    296.855835    30.436155
5311.36    269.850769    32.171806
5312.56    245.817245    36.501389
5313.76    281.668488    43.005672
5314.96    283.223694    48.319427
5316.15    288.349518    39.922867
5317.35    326.507996    21.665991
5318.55    300.366730    23.441515
5319.75    293.352325    35.737804
5320.95    316.382629    42.191662
5322.15    307.095215    36.527584
5323.35    308.529755    25.088284
5324.55    324.087921    23.811277
5325.75    335.938873    35.891201
5326.95    342.011627    44.404537
5328.15    363.556152    42.674858
5329.35    374.069611    37.223492
5330.55    341.319366    34.800812
5331.75    306.227631    28.780731
5332.95    292.122711    31.119631
5334.15    297.330536    41.208191
5335.35    305.583374    39.685688
5336.55    306.570709    31.539082
5337.75    306.884766    26.501083
5338.95    309.000702    29.190277
5340.15    295.935120    35.446732
5341.35    301.753235    38.801216
5342.55    316.686798    36.734951
5343.75    297.578949    32.657608
5344.95    312.998474    32.124065
5346.15    338.730560    27.479481
5347.35    316.355103    22.718227
5348.55    269.780365    44.973824
5349.75    279.330322    48.901623
5350.94    326.011017    31.345839
5352.14    321.668793    36.360687
5353.34    329.247894    34.927174
5354.54    327.688751    29.909426
5355.74    293.784882    34.628578
5356.94    299.724213    34.350258
5358.14    298.978088    32.469158
5359.34    274.286224    33.089909
5360.54    268.471924    32.951767
5361.74    276.173645    28.494913
5362.94    290.841248    30.077610
5364.14    305.174988    39.604355
5365.34    308.134216    36.037598
5366.54    324.111938    33.082382
5367.74    342.109314    37.269897
5368.94    327.065765    38.603630
5370.14    319.906586    40.701797
5371.34    321.417969    41.876610
5372.54    312.534729    41.601093
5373.74    303.066895    47.522781
5374.94    313.247009    49.543808
5376.14    332.582214    44.738075
5377.34    331.541779    41.511517
5378.54    334.710358    35.963558
5379.74    331.469086    34.978420
5380.94    313.560303    39.545822
5382.14    324.704742    29.503099
5383.34    326.749664    32.373604
5384.53    308.792480    49.172546
5385.73    311.460022    41.668835
5386.93    297.721466    29.618942
5388.13    294.207275    30.488256
5389.33    325.118469    40.124836
5390.53    300.081329    38.028847
5391.73    281.361176    33.112881
5392.93    313.376007    36.862255
5394.13    330.752441    43.134350
5395.33    332.263947    38.249130
5396.53    356.485046    27.956776
5397.73    397.350159    29.461071
5398.93    327.215851    42.483711
5400.13    289.712830    48.992119
5401.33    364.550415    41.578236
5402.53    352.504059    37.051682
5403.73    321.735840    31.676229
5404.93    329.099243    29.413675
5406.13    335.869812    37.900085
5407.33    327.835114    34.953747
5408.53    319.183350    30.431139
5409.73    324.604980    38.130013
5410.93    333.115936    38.524223
5412.13    333.620850    31.874868
5413.33    318.568939    29.055077
5414.53    290.518250    37.619888
5415.73    277.776825    46.752647
5416.93    292.527130    44.238907
5418.13    315.178711    31.551216
5419.32    301.139771    31.901899
5420.52    277.411072    32.340187
5421.72    279.968628    25.075699
5422.92    296.499756    31.783417
5424.12    286.815063    40.304932
5425.32    279.011475    40.797787
5426.52    324.372009    36.722038
5427.72    332.024323    31.630022
5428.92    310.613464    28.575529
5430.12    310.557800    30.127033
5431.32    310.575165    36.957741
5432.52    315.700714    40.129219
5433.72    320.105133    36.061707
5434.92    300.224915    32.594028
5436.12    289.513092    35.854683
5437.32    306.990875    41.473873
5438.52    337.381927    39.934410
5439.72    345.055298    31.320663
5440.92    327.078583    29.110096
5442.12    310.735535    38.847340
5443.32    326.357300    43.526203
5444.52    325.277527    39.022552
5445.72    299.653687    34.002876
5446.92    298.249420    38.934517
5448.12    287.569794    41.366241
5449.32    289.659851    38.506462
5450.52    334.331421    35.892799
5451.72    340.071533    32.282307
5452.92    311.760773    37.453770
5454.11    298.992889    48.753967
5455.31    324.142151    41.376881
5456.51    343.790161    32.746628
5457.71    333.286194    41.701283
5458.91    317.918640    62.951889
5460.11    336.581055    63.082993
5461.31    352.524292    50.841206
5462.51    321.051910    52.387955
5463.71    309.402008    51.519592
5464.91    329.066406    46.419609
5466.11    338.385376    43.950958
5467.31    295.446289    45.432869
5468.51    290.558258    39.729488
5469.71    326.313538    30.927902
5470.91    302.076965    36.298153
5472.11    274.697998    43.725399
5473.31    284.047150    40.350044
5474.51    320.355499    28.882568
5475.71    354.641296    33.761837
5476.91    346.994629    41.805302
5478.11    314.107971    36.828651
5479.31    344.798157    32.745152
5480.51    359.378967    34.511322
5481.71    322.850555    41.037350
5482.91    312.701141    46.675903
5484.11    341.141998    37.397755
5485.31    368.123718    29.569118
5486.51    351.087524    44.397800
5487.71    317.738464    47.878433
5488.90    311.266968    38.536930
5490.10    339.866089    33.833210
5491.30    349.670471    39.187477
5492.50    328.869202    50.825508
5493.70    306.176971    54.374706
5494.90    317.346619    36.889702
5496.10    313.346100    33.073776
5497.30    283.675995    45.735245
5498.50    269.669373    46.452812
5499.70    287.141296    42.501179
5500.90    325.551788    37.798428
5502.10    354.843506    31.924290
5503.30    342.116180    30.303276
5504.50    320.768799    35.460182
5505.70    326.280518    41.074085
5506.90    344.991760    35.085339
5508.10    352.739777    32.771282
5509.30    344.858063    40.110088
5510.50    338.054749    44.584457
5511.70    337.167664    44.395638
5512.90    333.812866    41.565971
5514.10    321.040955    38.151543
5515.30    315.566895    34.618286
5516.50    312.319244    36.383217
5517.70    303.813110    44.702862
5518.90    304.156647    48.086235
5520.10    303.646393    43.439922
5521.30    311.704346    33.752205
5522.50    358.816956    24.562332
5523.69    370.966125    21.845259
5524.89    336.762390    29.562332
5526.09    318.401947    44.482178
5527.29    291.405029    47.417686
5528.49    288.839203    41.378254
5529.69    337.926208    42.432510
5530.89    319.673920    48.767090
5532.09    295.489136    50.193645
5533.29    341.579895    42.429726
5534.49    362.018890    36.154686
5535.69    366.198212    30.769938
5536.89    371.637238    29.543251
5538.09    349.211823    41.993580
5539.29    338.293884    46.844978
5540.49    344.970978    43.052704
5541.69    331.885376    48.373646
5542.89    311.750458    40.537685
5544.09    323.721893    27.101330
5545.29    371.452057    31.788416
5546.49    354.009094    41.561928
5547.69    324.341217    39.638378
5548.89    351.547974    29.609596
5550.09    357.260468    42.843155
5551.29    356.763794    51.324940
5552.49    369.668060    37.156376
5553.69    360.566956    30.552588
5554.89    342.333069    29.369730
5556.09    344.305359    31.092525
5557.29    372.502777    40.752335
5558.48    354.367981    44.688114
5559.68    317.909607    41.722485
5560.88    341.604004    41.039551
5562.08    365.380646    40.629509
5563.28    354.804840    41.505573
5564.48    335.237488    45.185184
5565.68    372.213501    47.665081
5566.88    396.645050    47.864769
5568.08    365.574432    47.066784
5569.28    369.737213    46.366531
5570.48    378.563080    40.860546
5571.68    361.710297    40.504452
5572.88    348.561157    74.260025
5574.08    352.450104    158.747452
5575.28    370.180908    265.706726
5576.48    383.717285    340.315918
5577.68    364.087646    371.463348
5578.88    327.263763    346.776001
5580.08    320.145111    269.863403
5581.28    367.442169    199.154144
5582.48    392.013092    134.516205
5583.68    343.845551    70.599899
5584.88    324.000336    57.304085
5586.08    331.255493    58.550907
5587.28    337.703796    41.530872
5588.48    355.101288    36.548702
5589.68    377.063202    41.300156
5590.88    379.427185    44.970707
5592.08    348.376434    43.531113
5593.27    359.410583    37.328793
5594.47    384.109009    34.161266
5595.67    338.663544    40.078030
5596.87    337.599915    37.970734
5598.07    361.458008    34.461075
5599.27    330.091614    44.126343
5600.47    326.763550    50.195751
5601.67    335.807953    51.386482
5602.87    324.842010    50.555912
5604.07    355.777069    38.624729
5605.27    370.344116    32.007236
5606.47    334.331116    39.237686
5607.67    327.199310    40.924988
5608.87    330.245148    37.375904
5610.07    326.816864    34.089733
5611.27    341.595184    33.059685
5612.47    358.010010    36.126957
5613.67    370.792816    41.200684
5614.87    386.676361    44.448498
5616.07    375.787750    49.001621
5617.27    342.736847    51.995331
5618.47    326.669983    47.651474
5619.67    360.498962    38.650078
5620.87    384.752991    30.730839
5622.07    351.225708    30.888447
5623.27    346.098907    43.675587
5624.47    349.106232    49.072350
5625.67    325.294250    39.629372
5626.87    319.787720    43.907089
5628.06    360.338104    49.469879
5629.26    409.928497    42.796028
5630.46    384.879578    34.408520
5631.66    342.396942    37.417618
5632.86    336.975189    45.995560
5634.06    357.715637    41.553120
5635.26    355.399414    39.111988
5636.46    347.059296    43.269070
5637.66    375.789490    45.201210
5638.86    360.513397    48.097332
5640.06    327.642822    49.904186
5641.26    344.164948    47.412983
5642.46    341.146454    47.915775
5643.66    333.915375    48.730621
5644.86    357.589966    45.600830
5646.06    363.691711    44.486172
5647.26    346.316589    45.199383
5648.46    324.586548    45.835846
5649.66    311.812378    47.272213
5650.86    294.860748    48.091698
5652.06    289.066650    46.289928
5653.26    335.571289    41.670128
5654.46    347.579437    39.972729
5655.66    322.993286    41.001396
5656.86    355.320099    40.681030
5658.06    366.065826    52.368286
5659.26    343.140625    60.489491
5660.46    350.029114    39.685242
5661.66    365.300415    28.703861
5662.85    362.993927    33.623299
5664.05    341.449493    36.787800
5665.25    333.566650    46.859207
5666.45    350.352386    51.009457
5667.65    364.815521    40.831444
5668.85    321.532959    46.298531
5670.05    296.700653    54.646912
5671.25    344.608551    49.072533
5672.45    372.248169    46.012890
5673.65    364.942535    45.709633
5674.85    351.394836    40.992519
5676.05    355.187988    30.171568
5677.25    343.488281    33.792286
5678.45    333.136993    49.687775
5679.65    383.620117    48.763226
5680.85    383.949402    42.504589
5682.05    330.927246    42.072872
5683.25    335.863251    46.253193
5684.45    361.309265    52.781887
5685.65    373.629944    53.412590
5686.85    376.697845    44.339893
5688.05    386.650513    46.842705
5689.25    390.900543    55.882977
5690.45    379.065979    52.510777
5691.65    390.584747    37.918953
5692.85    395.940857    30.043917
5694.05    362.251404    39.437473
5695.25    334.795258    48.139927
5696.44    329.584534    53.727417
5697.64    341.914062    53.698380
5698.84    360.381134    36.841835
5700.04    351.020325    34.601097
5701.24    323.587555    54.707222
5702.44    339.799500    56.773830
5703.64    352.226471    48.724262
5704.84    336.404449    45.962364
5706.04    332.404938    48.834023
5707.24    350.899628    43.498692
5708.44    366.959167    36.024174
5709.64    348.503937    44.830925
5710.84    330.424683    50.651314
5712.04    345.606781    48.897594
5713.24    389.891937    49.276489
5714.44    398.263367    46.770664
5715.64    372.780121    41.030437
5716.84    350.075012    38.565910
5718.04    320.806671    47.536236
5719.24    317.606049    53.840832
5720.44    352.542816    45.259354
5721.64    350.334381    38.926205
5722.84    349.295013    37.937084
5724.04    377.171692    38.687946
5725.24    356.477051    40.231125
5726.44    341.995605    34.625534
5727.64    359.474579    26.806484
5728.84    331.512909    37.448040
5730.04    324.038361    46.808479
5731.23    366.067444    43.229733
5732.43    386.792328    40.695560
5733.63    368.868622    42.018822
5734.83    337.737305    42.978336
5736.03    338.179535    39.207726
5737.23    383.557343    38.493801
5738.43    405.959045    41.110909
5739.63    342.814178    40.259007
5740.83    344.548248    36.864307
5742.03    396.883850    39.064312
5743.23    387.549774    49.062523
5744.43    362.559448    45.028961
5745.63    349.193176    39.511787
5746.83    348.700317    48.788651
5748.03    367.458832    46.028893
5749.23    384.147614    43.179043
5750.43    383.199310    54.393696
5751.63    385.578918    54.809010
5752.83    381.643250    46.281425
5754.03    366.513336    39.697754
5755.23    363.446594    36.784458
5756.43    360.264679    37.877113
5757.63    352.113586    41.634567
5758.83    362.506287    44.740826
5760.03    401.154938    44.248337
5761.23    427.413177    44.811775
5762.43    383.581360    53.251225
5763.63    364.722504    48.963444
5764.83    379.823395    39.022545
5766.02    351.296265    48.712563
5767.22    354.883240    42.619324
5768.42    377.724060    36.212364
5769.62    351.955750    67.301979
5770.82    365.283844    73.710114
5772.02    397.121307    53.617085
5773.22    379.976837    47.422535
5774.42    382.947021    50.667271
5775.62    378.842072    52.935787
5776.82    336.423798    48.793442
5778.02    361.746307    42.179741
5779.22    387.949341    42.219257
5780.42    353.256287    47.501274
5781.62    375.987915    38.464535
5782.82    399.054260    36.349297
5784.02    359.904327    50.826263
5785.22    328.986786    49.050915
5786.42    357.636841    45.357307
5787.62    409.812531    52.394588
5788.82    383.403198    55.834194
5790.02    365.857788    56.008610
5791.22    393.438416    55.076534
5792.42    387.763947    51.759476
5793.62    365.134979    48.871708
5794.82    343.418640    50.103992
5796.02    318.144165    55.100094
5797.22    302.685577    50.969749
5798.42    311.988281    45.111389
5799.62    341.671478    53.268715
5800.81    340.355225    55.800076
5802.01    328.743164    53.051487
5803.21    352.791718    56.499069
5804.41    366.622009    54.540657
5805.61    344.828064    46.275188
5806.81    309.319000    41.787380
5808.01    326.040070    51.102627
5809.21    369.283112    50.882324
5810.41    386.136078    30.494972
5811.61    377.194611    31.678047
5812.81    362.127655    43.735863
5814.01    358.310303    43.923840
5815.21    368.729218    35.669010
5816.41    391.405640    27.680588
5817.61    400.123230    28.234127
5818.81    357.894379    39.978840
5820.01    338.899689    47.507656
5821.21    363.337097    45.126553
5822.41    362.597687    44.093224
5823.61    366.445740    46.503979
5824.81    374.863617    47.976387
5826.01    350.345032    45.099636
5827.21    344.715210    51.099155
5828.41    358.225250    61.372581
5829.61    350.239655    59.126984
5830.81    356.489838    51.103065
5832.01    369.163727    46.964828
5833.21    359.307678    50.902218
5834.41    360.250519    56.300339
5835.60    361.053436    54.844105
5836.80    347.913513    46.295532
5838.00    372.393158    47.074482
5839.20    378.610870    58.167786
5840.40    329.800598    64.755936
5841.60    338.144012    47.714569
5842.80    379.356598    41.641155
5844.00    393.169250    60.714706
5845.20    386.014313    52.348869
5846.40    378.775116    36.406849
5847.60    382.301483    37.470997
5848.80    389.537048    42.182606
5850.00    399.439667    47.208466
5851.20    399.757202    51.832981
5852.40    375.536133    54.285721
5853.60    375.215424    58.482841
5854.80    397.072998    61.996769
5856.00    385.938324    57.388268
5857.20    361.039825    50.608398
5858.40    347.748962    48.033463
5859.60    355.992462    50.466572
5860.80    381.330688    49.955135
5862.00    386.496613    48.028111
5863.20    345.300110    51.713505
5864.40    321.861603    58.641865
5865.60    339.787384    60.453270
5866.80    375.170441    52.577271
5868.00    386.194672    45.239174
5869.20    381.361053    42.867535
5870.39    382.174652    43.805958
5871.59    376.115417    44.409916
5872.79    347.012512    49.495533
5873.99    317.132935    58.331799
5875.19    351.525330    56.952213
5876.39    378.663635    51.295902
5877.59    358.441223    47.524002
5878.79    358.684204    41.499847
5879.99    343.996033    38.770721
5881.19    313.370941    42.717407
5882.39    329.807220    49.333275
5883.59    344.482178    53.304924
5884.79    337.968414    54.008041
5885.99    343.064056    55.470829
5887.19    343.005615    59.846970
5888.39    340.399780    68.884483
5889.59    349.403656    77.866928
5890.79    335.105103    64.214279
5891.99    324.764252    46.133503
5893.19    358.984528    52.552898
5894.39    373.965240    54.049122
5895.59    365.599274    48.285507
5896.79    356.325226    50.129745
5897.99    322.291534    58.687222
5899.19    293.284729    64.590645
5900.39    301.054901    60.105148
5901.59    317.160004    48.394680
5902.79    298.919556    42.858059
5903.99    249.911407    46.770828
5905.18    239.474258    43.739410
5906.38    255.306946    36.232677
5907.58    257.432190    32.895779
5908.78    227.395813    36.615643
5909.98    211.162735    34.248207
5911.18    230.437592    27.035082
5912.38    257.139771    31.953922
5913.58    269.510406    38.853123
5914.78    261.306427    43.248505
5915.98    248.379349    49.305962
5917.18    275.009308    47.444759
5918.38    316.604370    40.472958
5919.58    318.140411    39.771336
5920.78    314.109100    43.927132
5921.98    332.106842    42.833878
5923.18    363.325806    32.675865
5924.38    357.479218    32.935516
5925.58    329.202820    40.497330
5926.78    320.050690    42.524963
5927.98    338.666351    38.707878
5929.18    366.729553    39.578987
5930.38    377.434845    48.053604
5931.58    354.771759    50.013947
5932.78    322.293121    53.385498
5933.98    308.771057    60.748039
5935.18    321.632965    56.776165
5936.38    334.513336    43.986565
5937.58    336.868622    35.966885
5938.78    342.954987    44.124298
5939.97    338.094818    47.797699
5941.17    325.766876    45.077545
5942.37    326.170715    51.712589
5943.57    325.728973    49.533405
5944.77    326.827240    39.225864
5945.97    341.533813    39.293633
5947.17    351.918213    53.471966
5948.37    336.796539    65.816185
5949.57    302.813446    60.861130
5950.77    310.704071    52.429741
5951.97    337.019684    53.666862
5953.17    335.677856    60.741058
5954.37    324.775696    47.975933
5955.57    341.179260    35.728802
5956.77    372.300537    43.335709
5957.97    339.136414    51.582748
5959.17    309.531311    52.268715
5960.37    325.856964    48.242416
5961.57    327.214355    47.751842
5962.77    326.593353    50.271080
5963.97    329.092560    51.028561
5965.17    312.907043    47.569374
5966.37    304.895630    51.889351
5967.57    315.880188    56.792816
5968.77    327.116638    45.788086
5969.97    316.445068    41.840042
5971.17    310.841400    46.288734
5972.37    338.421509    43.868591
5973.57    333.563660    38.646732
5974.76    313.460205    43.595444
5975.96    321.102936    58.718918
5977.16    321.507111    53.092472
5978.36    323.983215    41.370544
5979.56    344.229401    44.117371
5980.76    358.184570    47.107166
5981.96    348.017059    48.698067
5983.16    323.673523    49.285461
5984.36    322.872894    43.860928
5985.56    348.272705    37.959179
5986.76    375.533997    36.013470
5987.96    370.672241    36.742493
5989.16    332.886566    39.821079
5990.36    311.621552    43.086517
5991.56    350.395386    44.905018
5992.76    339.598907    52.357647
5993.96    287.939362    61.780617
5995.16    285.528381    62.315277
5996.36    306.023376    52.799633
5997.56    323.765625    45.732841
5998.76    331.460236    50.540527
5999.96    331.203186    53.333672
6001.16    328.203094    49.368008
6002.36    320.299591    46.809788
6003.56    296.942688    59.119553
6004.76    292.683044    59.075298
6005.96    314.640656    40.908943
6007.16    315.946625    43.478813
6008.35    327.297485    40.062874
6009.55    347.968933    27.011698
6010.75    330.439697    40.203239
6011.95    323.581207    50.493111
6013.15    338.609680    43.389645
6014.35    333.392395    36.392761
6015.55    297.445526    46.827293
6016.75    290.867920    58.078846
6017.95    355.304443    48.939774
6019.15    368.783356    50.030788
6020.35    332.036682    52.951164
6021.55    313.647644    42.280884
6022.75    325.720093    44.500256
6023.95    338.270050    50.705971
6025.15    329.099762    46.824535
6026.35    316.983521    42.146450
6027.55    319.823425    38.677155
6028.75    342.214142    36.096825
6029.95    367.535980    36.372044
6031.15    351.919220    43.302052
6032.35    309.249847    50.017689
6033.55    302.434784    45.513802
6034.75    320.962952    45.518345
6035.95    334.220886    48.919289
6037.15    324.964996    43.734802
6038.35    318.088287    41.381634
6039.55    325.547974    44.944664
6040.75    334.706573    50.439026
6041.95    316.248352    56.083412
6043.14    305.450104    54.006561
6044.34    320.045166    44.092770
6045.54    301.436829    42.488091
6046.74    283.688904    46.616684
6047.94    298.390411    51.534462
6049.14    319.342773    57.347157
6050.34    327.406616    50.118896
6051.54    321.852142    38.986843
6052.74    313.567047    47.617661
6053.94    299.027710    45.704800
6055.14    302.970581    34.463406
6056.34    344.998322    39.006031
6057.54    359.922333    46.620632
6058.74    346.211731    53.769363
6059.94    335.265717    60.269451
6061.14    319.053986    53.172157
6062.34    306.982819    44.776428
6063.54    311.864746    45.889225
6064.74    329.190369    44.261562
6065.94    333.188782    43.269825
6067.14    323.139374    45.886684
6068.34    330.642670    46.861626
6069.54    340.881348    47.230530
6070.74    346.350311    44.711048
6071.94    357.853546    37.033855
6073.14    372.589691    39.125679
6074.34    367.729462    45.191357
6075.54    331.191132    41.206726
6076.74    309.169373    40.414207
6077.93    313.865204    47.118919
6079.13    328.055389    52.638710
6080.33    331.092865    43.475807
6081.53    324.128937    40.958458
6082.73    315.746552    50.878315
6083.93    311.068359    42.155613
6085.13    318.112610    37.994553
6086.33    338.050476    43.998013
6087.53    355.495361    35.690819
6088.73    329.635651    35.705883
6089.93    293.747223    49.538071
6091.13    310.291199    59.479889
6092.33    327.532104    56.264153
6093.53    324.231689    49.139606
6094.73    316.803192    48.395248
6095.93    324.729828    44.358692
6097.13    332.650696    40.372459
6098.33    324.620544    42.416824
6099.53    311.644165    47.264477
6100.73    303.969574    46.438068
6101.93    312.620270    42.010658
6103.13    340.451019    45.741329
6104.33    348.208954    48.802208
6105.53    328.944885    45.486008
6106.73    313.151794    39.837914
6107.93    320.259644    40.325470
6109.13    309.785248    44.730801
6110.33    270.710205    43.257328
6111.53    316.933044    30.322578
6112.72    354.234863    30.747356
6113.92    315.504547    49.009079
6115.12    328.740601    43.548786
6116.32    338.664062    36.325058
6117.52    315.129517    41.950928
6118.72    323.180817    41.641479
6119.92    331.796661    38.329559
6121.12    318.940186    38.247715
6122.32    302.821747    41.211964
6123.52    320.302399    37.658264
6124.72    339.525970    37.356030
6125.92    321.072693    47.763428
6127.12    304.650757    46.765129
6128.32    304.715424    42.650497
6129.52    318.097168    44.118881
6130.72    336.182068    39.993382
6131.92    328.060547    41.254971
6133.12    297.456238    49.109657
6134.32    285.807861    47.735081
6135.52    299.940704    33.284657
6136.72    315.821533    28.442787
6137.92    309.767181    50.612324
6139.12    304.999664    58.332291
6140.32    320.814636    49.482178
6141.52    344.393036    44.696251
6142.72    330.908508    50.562107
6143.92    330.266907    53.682659
6145.12    350.219269    46.408905
6146.32    318.744781    38.227043
6147.51    297.152924    35.589172
6148.71    301.843079    39.499893
6149.91    293.426270    44.863285
6151.11    306.351471    41.956200
6152.31    321.114136    42.770592
6153.51    313.382812    52.646675
6154.71    334.829498    38.738411
6155.91    324.052826    38.595463
6157.11    269.890656    63.331978
6158.31    291.155823    49.276955
6159.51    323.628571    35.771027
6160.71    321.802704    41.036644
6161.91    321.971802    35.489258
6163.11    331.535797    36.858986
6164.31    323.259796    46.408733
6165.51    286.766418    49.566139
6166.71    289.550781    45.079407
6167.91    302.034180    41.909794
6169.11    292.045166    46.221397
6170.31    304.148499    52.313717
6171.51    306.317139    53.606495
6172.71    285.702240    46.821667
6173.91    276.927002    34.794640
6175.11    278.636749    29.100420
6176.31    278.254456    35.873699
6177.51    275.140808    46.415554
6178.71    295.335815    35.170288
6179.91    301.267853    24.818880
6181.11    286.748627    34.125404
6182.30    329.574066    34.394848
6183.50    319.078827    36.937878
6184.70    253.694580    47.089394
6185.90    276.423798    48.240055
6187.10    277.175293    41.399067
6188.30    248.569214    35.629559
6189.50    263.634338    35.619823
6190.70    268.422913    30.915569
6191.90    264.114227    34.356701
6193.10    271.122742    48.372765
6194.30    276.163391    43.708771
6195.50    282.801880    41.380562
6196.70    293.285461    44.836239
6197.90    300.819122    31.682934
6199.10    300.999115    34.100380
6200.30    288.578979    45.800041
6201.50    267.988312    41.842159
6202.70    264.964294    42.572968
6203.90    271.939728    40.743317
6205.10    278.881165    32.995461
6206.30    294.550873    40.892063
6207.50    296.800537    44.248158
6208.70    288.974304    37.764000
6209.90    294.981415    40.198395
6211.10    288.020721    48.464493
6212.30    295.313843    46.724754
6213.50    329.377991    32.323555
6214.70    300.439545    35.631855
6215.90    269.961487    45.910603
6217.09    282.686768    47.998730
6218.29    279.498505    47.254597
6219.49    286.502014    43.649567
6220.69    302.926086    41.031277
6221.89    300.559631    43.559246
6223.09    304.856384    42.658371
6224.29    319.266968    37.281883
6225.49    324.407898    33.823738
6226.69    301.878540    37.925964
6227.89    282.182678    34.126209
6229.09    282.123810    26.014486
6230.29    279.831177    35.589188
6231.49    249.366943    43.377884
6232.69    233.208679    44.179619
6233.89    269.786530    45.149719
6235.09    286.308990    43.006943
6236.29    271.313873    42.528492
6237.49    256.043335    44.976387
6238.69    266.518341    44.117214
6239.89    265.038818    48.715046
6241.09    245.801392    52.671772
6242.29    241.343567    43.676250
6243.49    263.160431    37.437321
6244.69    281.345459    37.141533
6245.89    277.326111    35.571617
6247.09    279.523071    29.007435
6248.29    279.376129    36.924908
6249.49    269.082001    51.300377
6250.69    257.801788    43.247707
6251.88    257.280518    34.051720
6253.08    266.800018    33.375202
6254.28    267.922577    37.859585
6255.48    238.976074    45.513451
6256.68    247.675247    45.055992
6257.88    273.525299    41.078991
6259.08    216.248810    49.300659
6260.28    214.004745    43.250927
6261.48    269.752228    32.400303
6262.68    289.354736    37.450657
6263.88    280.770447    34.202145
6265.08    282.223297    29.121506
6266.28    292.073669    32.931282
6267.48    269.280426    40.577381
6268.68    261.014008    48.110832
6269.88    267.913330    46.450378
6271.08    255.789017    34.981388
6272.28    243.118347    38.411507
6273.48    258.206055    40.401699
6274.68    278.337616    30.233538
6275.88    243.200409    30.053690
6277.08    239.402756    37.375751
6278.28    260.070557    36.483757
6279.48    242.914734    23.204725
6280.68    258.054901    28.421684
6281.88    255.355621    41.625622
6283.08    232.842194    44.991627
6284.28    301.391479    43.344841
6285.48    309.740356    36.812290
6286.67    257.757233    34.704693
6287.87    267.402893    44.258404
6289.07    273.217468    45.964622
6290.27    243.812668    39.410507
6291.47    214.951538    34.093643
6292.67    244.755005    34.382294
6293.87    273.455841    35.064671
6295.07    280.341858    35.195755
6296.27    288.315094    42.649185
6297.47    278.449310    69.204750
6298.67    268.664215    100.407379
6299.87    274.793182    112.118454
6301.07    279.592224    92.463791
6302.27    267.702942    60.386219
6303.47    257.072266    40.076782
6304.67    269.843353    39.643837
6305.87    279.664856    38.782898
6307.07    273.710693    38.866089
6308.27    267.029907    39.979237
6309.47    285.984070    32.070141
6310.67    308.035004    31.269880
6311.87    303.485870    36.886463
6313.07    272.933685    37.306419
6314.27    265.575409    35.064625
6315.47    289.159180    33.635468
6316.67    312.311981    32.925865
6317.87    297.723114    32.797058
6319.07    266.468109    43.247551
6320.26    267.485321    45.898483
6321.46    302.312592    29.467196
6322.66    288.213043    26.465763
6323.86    256.442841    33.846527
6325.06    247.212967    35.472683
6326.26    257.562012    28.476955
6327.46    266.292786    39.001999
6328.66    266.036102    48.253101
6329.86    256.811310    39.420029
6331.06    241.303314    36.720097
6332.26    248.433899    36.681068
6333.46    277.189301    36.050739
6334.66    294.099579    35.154408
6335.86    274.870331    26.636259
6337.06    265.736694    26.395199
6338.26    270.563660    37.189705
6339.46    238.336578    37.758102
6340.66    251.282776    32.308067
6341.86    273.178864    28.433889
6343.06    246.929062    28.794308
6344.26    249.998474    31.119928
6345.46    245.765564    35.410297
6346.66    229.913742    39.243977
6347.86    252.125275    38.168285
6349.06    289.628265    32.197445
6350.26    295.749359    26.313719
6351.46    271.242096    24.980085
6352.66    269.932831    27.737562
6353.86    255.111191    30.351805
6355.05    245.027115    32.699821
6356.25    265.326508    37.170570
6357.45    248.914246    41.946995
6358.65    233.241226    36.539631
6359.85    246.864777    27.774990
6361.05    260.757050    35.059113
6362.25    254.549698    50.079739
6363.45    269.870178    58.163918
6364.65    302.006470    52.251209
6365.85    266.998505    39.106274
6367.05    236.627258    32.177666
6368.25    256.611603    32.050617
6369.45    286.795654    32.703434
6370.65    249.659683    35.609882
6371.85    227.944351    34.516037
6373.05    246.014572    32.142544
6374.25    241.293625    34.704285
6375.45    249.622269    27.028194
6376.65    252.087784    26.887821
6377.85    242.041245    39.063873
6379.05    257.921234    34.830070
6380.25    253.768494    25.579939
6381.45    248.781128    30.766037
6382.65    268.368988    45.677391
6383.85    259.955017    36.859428
6385.05    265.017609    29.338684
6386.25    287.706757    32.262497
6387.45    289.277771    29.877720
6388.65    281.621216    25.499023
6389.84    278.722382    26.483578
6391.04    265.389923    30.036022
6392.24    228.411911    28.987141
6393.44    241.212280    37.311069
6394.64    254.556229    43.123386
6395.84    232.037918    35.043854
6397.04    243.340561    26.673866
6398.24    254.720947    28.767452
6399.44    259.362732    31.609056
6400.64    271.251984    27.940815
6401.84    273.619812    33.605686
6403.04    265.365601    35.503670
6404.24    247.782684    33.060452
6405.44    237.914627    35.159908
6406.64    274.732605    30.755966
6407.84    268.292511    30.394138
6409.04    229.136078    35.239559
6410.24    254.656723    31.807653
6411.44    248.334763    23.869457
6412.64    226.187225    26.154249
6413.84    226.137299    36.292168
6415.04    229.832596    33.587109
6416.24    243.977203    24.866737
6417.44    237.168320    24.843836
6418.64    214.986359    34.956680
6419.84    239.598572    38.456268
6421.04    233.935349    31.664669
6422.24    222.904770    28.912310
6423.44    253.534180    34.095055
6424.63    258.648102    26.344864
6425.83    238.838470    30.434906
6427.03    226.763504    39.324295
6428.23    232.276779    33.387890
6429.43    222.470398    35.400822
6430.63    239.977615    36.120789
6431.83    267.857330    31.126902
6433.03    259.603973    30.361158
6434.23    266.338226    37.468418
6435.43    257.169312    42.188782
6436.63    247.298874    36.396320
6437.83    276.582275    25.170942
6439.03    257.304474    25.024338
6440.23    253.949814    29.880943
6441.43    283.418121    29.606998
6442.63    273.366913    25.929905
6443.83    274.286743    30.489983
6445.03    281.503845    37.362766
6446.23    281.169861    37.726341
6447.43    285.962830    31.883144
6448.63    286.108337    25.369165
6449.83    267.431946    29.982746
6451.03    243.075897    41.454796
6452.23    240.853424    40.483181
6453.43    231.828369    34.698498
6454.63    233.996399    26.171860
6455.83    255.951172    22.278994
6457.03    259.755493    32.725887
6458.23    240.206482    29.087238
6459.42    234.798477    26.884136
6460.62    251.405945    36.144569
6461.82    248.811813    32.097702
6463.02    246.557144    33.084118
6464.22    250.803848    38.454876
6465.42    260.661377    35.652161
6466.62    275.584167    24.415527
6467.82    258.809082    21.526539
6469.02    235.130920    32.384480
6470.22    233.065872    44.186253
6471.42    237.838684    39.753345
6472.62    257.137360    31.087933
6473.82    255.291870    27.305029
6475.02    229.310898    25.807003
6476.22    236.775925    22.660479
6477.42    257.428436    34.071163
6478.62    241.501205    43.024879
6479.82    208.634277    35.308964
6481.02    237.199280    25.828606
6482.22    274.393585    21.074659
6483.42    268.926636    22.002796
6484.62    244.550369    26.425470
6485.82    251.888428    31.051252
6487.02    218.279953    33.734810
6488.22    219.820984    28.316761
6489.42    267.523773    25.927933
6490.62    255.350754    39.314743
6491.82    245.382431    30.035763
6493.02    242.748718    20.786814
6494.21    243.479340    30.943188
6495.41    257.398560    42.037262
6496.61    249.338440    41.951557
6497.81    247.954285    32.963402
6499.01    245.139313    32.848202
6500.21    222.772293    46.544266
6501.41    260.882568    38.351051
6502.61    266.373322    35.915558
6503.81    240.681839    42.071857
6505.01    253.744400    36.329369
6506.21    237.886627    36.443104
6507.41    224.876389    32.011581
6508.61    238.997910    30.435539
6509.81    255.924042    38.913101
6511.01    243.492325    33.790848
6512.21    230.509995    28.368204
6513.41    242.072876    25.800755
6514.61    251.504883    21.932140
6515.81    215.104462    21.146484
6517.01    219.418198    20.236824
6518.21    240.571350    23.072933
6519.41    244.021027    28.183283
6520.61    260.516724    27.104139
6521.81    252.642166    28.784414
6523.01    223.763840    29.865450
6524.21    222.513000    29.119244
6525.41    261.874878    30.915432
6526.61    247.600510    29.778826
6527.81    245.628708    28.774282
6529.00    255.448792    27.193348
6530.20    234.961807    25.733082
6531.40    264.141144    33.852432
6532.60    297.577118    31.170794
6533.80    284.251709    36.585495
6535.00    246.456039    51.883690
6536.20    242.655167    30.869865
6537.40    214.374344    33.572678
6538.60    220.270142    41.741158
6539.80    269.311310    30.968231
6541.00    264.239685    28.794085
6542.20    251.524170    29.538887
6543.40    247.895279    27.429249
6544.60    254.938995    24.700443
6545.80    266.130219    25.788364
6547.00    248.935181    30.416027
6548.20    217.631821    42.090988
6549.40    215.168365    45.566780
6550.60    240.384293    33.675297
6551.80    232.983215    29.308409
6553.00    218.053711    34.388329
6554.20    229.267883    36.869614
6555.40    238.927246    35.048588
6556.60    216.071869    34.946392
6557.80    254.951904    24.150320
6559.00    280.511963    26.878212
6560.20    272.600311    33.286720
6561.40    289.295074    25.966805
6562.60    316.232880    37.045876
6563.79    303.947693    38.135746
6564.99    286.979431    31.252945
6566.19    293.132935    33.610424
6567.39    285.665558    39.589409
6568.59    281.858276    37.631458
6569.79    294.641724    32.855080
6570.99    287.807770    34.096115
6572.19    255.073486    38.963127
6573.39    286.781189    34.609932
6574.59    303.774689    27.829020
6575.79    284.420349    31.006834
6576.99    273.287689    39.289337
6578.19    278.122406    39.010868
6579.39    242.725220    50.922623
6580.59    243.766174    55.536541
6581.79    280.916321    45.171146
6582.99    282.158936    36.194969
6584.19    279.855316    34.600193
6585.39    281.121521    46.385799
6586.59    284.497620    45.900265
6587.79    277.600220    36.493217
6588.99    257.433044    49.501419
6590.19    275.709259    38.509727
6591.39    311.267303    31.014397
6592.59    308.150665    33.600323
6593.79    288.398132    28.971178
6594.99    344.401123    30.924938
6596.19    348.531036    27.773352
6597.39    329.087585    27.415869
6598.58    351.960968    37.294960
6599.78    393.922424    43.442444
6600.98    417.474884    29.834812
6602.18    393.937805    27.502737
6603.38    357.653656    34.825516
6604.58    375.970978    34.884804
6605.78    438.076569    34.049641
6606.98    387.689209    33.791794
6608.18    366.922058    30.796421
6609.38    394.952087    27.447529
6610.58    368.229523    25.923084
6611.78    335.418671    22.560480
6612.98    283.669525    28.846926
6614.18    236.944870    31.177387
6615.38    231.020279    28.164396
6616.58    249.021118    31.044136
6617.78    231.072479    24.690239
6618.98    239.778107    18.316334
6620.18    249.371155    22.157301
6621.38    231.853043    32.490314
6622.58    231.931366    35.508358
6623.78    240.559128    26.967087
6624.98    209.161560    31.454054
6626.18    210.257874    33.893726
6627.38    247.274933    26.102968
6628.58    199.592010    37.209873
6629.78    199.072311    42.798958
6630.98    239.304749    31.229231
6632.17    241.056107    22.596476
6633.37    208.081345    31.930948
6634.57    218.824066    38.142040
6635.77    211.856812    23.571514
6636.97    231.999130    19.173426
6638.17    250.763474    29.951954
6639.37    215.208221    34.021633
6640.57    201.572250    30.594269
6641.77    224.024292    21.697142
6642.97    221.973846    22.740381
6644.17    212.518768    28.603992
6645.37    233.346802    25.888222
6646.57    229.897598    24.332010
6647.77    245.434402    22.294306
6648.97    213.787262    23.041904
6650.17    193.957642    23.398533
6651.37    241.099808    22.128769
6652.57    197.078888    29.726540
6653.77    202.915054    31.269943
6654.97    211.136932    29.064981
6656.17    190.401840    29.280060
6657.37    201.136322    29.980654
6658.57    226.697311    28.374735
6659.77    216.390488    26.586096
6660.97    224.114700    21.873186
6662.17    233.101730    21.186640
6663.37    206.115250    27.167412
6664.57    207.729507    26.048136
6665.77    191.213684    28.642210
6666.96    192.414444    29.973745
6668.16    204.992142    28.891979
6669.36    201.290817    26.381279
6670.56    213.245407    20.545794
6671.76    216.754028    31.745197
6672.96    194.943268    35.849796
6674.16    198.572571    28.258177
6675.36    229.297623    26.353699
6676.56    213.005707    30.063374
6677.76    207.678162    24.369408
6678.96    232.866058    20.893932
6680.16    209.658325    31.054066
6681.36    178.225723    36.711662
6682.56    224.233734    23.223457
6683.76    165.429016    28.836020
6684.96    184.375381    24.550947
6686.16    210.846024    20.350859
6687.36    187.356903    25.976776
6688.56    203.323669    24.912676
6689.76    208.126541    19.411280
6690.96    215.746674    13.670864
6692.16    207.712646    18.543436
6693.36    191.966537    24.309328
6694.56    198.592239    22.069174
6695.76    213.651047    25.053518
6696.96    204.674515    20.071913
6698.16    202.664200    17.524971
6699.36    210.599518    22.601831
6700.56    219.787369    24.310024
6701.75    225.663315    18.089203
6702.95    194.552063    20.423763
6704.15    212.082886    20.208317
6705.35    213.271317    28.679609
6706.55    189.363129    34.941692
6707.75    199.014130    23.493952
6708.95    189.067841    23.480366
6710.15    203.465179    25.308332
6711.35    208.772354    23.754877
6712.55    173.860992    25.990343
6713.75    159.995117    29.966171
6714.95    213.659058    26.114580
6716.15    208.959335    25.968771
6717.35    194.691040    25.119652
6718.55    187.974899    29.731081
6719.75    194.720551    33.668339
6720.95    221.902679    26.281803
6722.15    228.432449    20.327509
6723.35    210.239059    19.989964
6724.55    208.737061    19.089359
6725.75    208.520706    23.194773
6726.95    194.927536    27.640463
6728.15    200.160202    21.979136
6729.35    219.041351    25.592422
6730.55    202.683105    30.687449
6731.75    213.629089    25.210377
6732.95    232.269882    19.333309
6734.15    219.375778    24.008614
6735.35    232.017395    27.146669
6736.54    249.315918    20.806055
6737.74    259.547058    22.821512
6738.94    249.829391    21.064102
6740.14    241.767181    17.650225
6741.34    244.901978    24.593822
6742.54    223.620026    23.678555
6743.74    221.715317    15.005762
6744.94    243.341858    17.916157
6746.14    236.225113    23.473640
6747.34    209.632538    22.829626
6748.54    209.008896    20.570299
6749.74    216.267776    15.050350
6750.94    258.083557    19.970360
6752.14    239.715973    22.912756
6753.34    211.036819    21.195030
6754.54    235.553986    17.561092
6755.74    238.411407    15.270409
6756.94    184.620728    23.362228
6758.14    218.842819    21.841789
6759.34    209.325165    18.043730
6760.54    193.053238    18.649481
6761.74    221.107239    18.451962
6762.94    198.714798    19.522398
6764.14    156.350922    28.258076
6765.34    200.229736    16.571707
6766.54    194.152878    19.694761
6767.74    198.017044    23.505024
6768.94    217.322617    18.094706
6770.14    165.900085    21.928642
6771.33    181.179535    17.098299
6772.53    195.140945    21.374668
6773.73    206.806839    17.919136
6774.93    193.125107    19.107901
6776.13    172.155380    21.147882
6777.33    177.928589    13.002741
6778.53    175.914063    22.278339
6779.73    200.764267    26.275272
6780.93    178.889313    24.580442
6782.13    160.568176    24.041258
6783.33    178.601013    21.115709
6784.53    177.922852    20.003445
6785.73    154.184418    28.005056
6786.93    164.887558    18.913538
6788.13    163.640686    16.849609
6789.33    175.439911    21.952648
6790.53    177.177841    22.089897
6791.73    171.287399    18.354622
6792.93    208.002762    14.731039
6794.13    202.030548    10.080931
6795.33    163.023666    25.056339
6796.53    177.951996    27.020931
6797.73    192.751175    22.575558
6798.93    178.475830    23.459871
6800.13    187.149567    19.780716
6801.33    185.099899    21.734764
6802.53    159.255951    25.254698
6803.73    156.733688    21.013035
6804.93    167.350677    22.964077
6806.12    175.850677    24.855547
6807.32    189.269241    17.823547
6808.52    191.301544    18.184763
6809.72    160.097046    24.516243
6810.92    160.813828    23.892056
6812.12    194.063354    22.551041
6813.32    192.621704    23.616610
6814.52    167.520035    26.051815
6815.72    170.915588    29.381643
6816.92    176.786240    27.229511
6818.12    184.812500    16.593800
6819.32    177.058929    22.496422
6820.52    157.389130    26.640324
6821.72    152.382126    24.562757
6822.92    165.944412    21.085545
6824.12    172.920776    16.224083
6825.32    173.919296    22.005093
6826.52    197.524124    17.659069
6827.72    181.317993    34.303108
6828.92    170.779114    34.993469
6830.12    180.332748    24.648348
6831.32    167.073105    32.050056
6832.52    149.110794    37.181698
6833.72    163.583420    35.558178
6834.92    156.218262    27.640379
6836.12    183.485657    24.158209
6837.32    189.814636    19.574154
6838.52    180.507217    17.683292
6839.72    180.703094    19.644772
6840.91    157.855499    17.100460
6842.11    175.047165    21.779137
6843.31    168.542664    19.348749
6844.51    175.177658    15.730144
6845.71    177.215820    18.194761
6846.91    161.983246    19.565786
6848.11    163.410828    18.230856
6849.31    180.598389    19.936899
6850.51    173.958084    17.918133
6851.71    164.529587    22.206148
6852.91    160.087601    21.999205
6854.11    161.777176    20.926477
6855.31    165.155884    20.130449
6856.51    170.098785    17.464195
6857.71    180.073273    15.695133
6858.91    182.396469    14.802630
6860.11    166.846756    24.410446
6861.31    159.210464    34.880356
6862.51    149.422791    33.081509
6863.71    146.381775    26.411953
6864.91    153.264404    25.084370
6866.11    137.756256    27.577009
6867.31    104.925163    26.951920
6868.51    115.943588    14.942612
6869.71    130.209274    17.161285
6870.91    136.782776    19.299438
6872.11    112.905991    16.898243
6873.31    107.399780    17.868866
6874.51    128.311707    16.775845
6875.70    114.647034     9.700693
6876.90    135.553619    12.341667
6878.10    103.874924    21.314781
6879.30    142.660309    18.692217
6880.50    152.165802    22.576525
6881.70    136.454788    23.905306
6882.90    153.793152    14.886998
6884.10    159.281937    14.438826
6885.30    158.760132    18.025364
6886.50    131.897324    17.446938
6887.70    159.683151    14.925055
6888.90    146.584030    23.456921
6890.10    126.889656    25.741896
6891.30    144.024017    15.517703
6892.50    135.638245    11.384412
6893.70    113.926086    17.718889
6894.90    158.146149    20.046413
6896.10    154.456100    16.533401
6897.30    151.112778    15.650912
6898.50    144.238281    16.656689
6899.70    137.143158    17.628578
6900.90    135.953400    25.332663
6902.10    141.653229    27.975826
6903.30    154.880219    15.682730
6904.50    141.474411    21.777245
6905.70    142.421982    19.659777
6906.90    143.144135    19.877525
6908.10    163.570786    22.374544
6909.30    150.505081    20.191521
6910.49    127.172699    20.204889
6911.69    148.685074    24.449001
6912.89    155.912537    21.473272
6914.09    154.676971    16.106426
6915.29    164.477402    16.907486
6916.49    145.937103    16.790846
6917.69    122.114174    28.864464
6918.89    126.157333    25.285809
6920.09    141.767609    16.371893
6921.29    154.069107    25.356760
6922.49    171.339630    24.906225
6923.69    173.228485    27.781170
6924.89    157.988449    33.715481
6926.09    133.573669    20.808788
6927.29    132.013931    17.106327
6928.49    170.528168    22.428020
6929.69    183.474960    25.064962
6930.89    161.330994    21.670427
6932.09    157.662979    13.659477
6933.29    133.911514    19.065424
6934.49    138.922455    24.340849
6935.69    140.418320    16.961468
6936.89    143.760406    20.775673
6938.09    166.818420    24.790207
6939.29    148.709457    24.298069
6940.49    122.382713    20.097343
6941.69    148.860947    16.104158
6942.89    143.525528    25.024576
6944.08    143.586838    18.125483
6945.28    149.763885    24.219635
6946.48    145.809692    20.947721
6947.68    142.987320    25.233740
6948.88    131.387009    31.720034
6950.08    128.416428    30.604864
6951.28    143.559998    25.598127
6952.48    139.447205    17.726084
6953.68    122.922691    23.032616
6954.88    117.615906    27.381569
6956.08    158.137970    20.574564
6957.28    124.031723    25.168041
6958.48    114.387459    23.446583
6959.68    135.135956    24.226353
6960.88    144.711258    25.255842
6962.08    154.384583    20.817308
6963.28    122.219429    34.283756
6964.48    125.627129    25.292877
6965.68    134.734299    25.174124
6966.88    149.612503    29.078066
6968.08    131.333847    25.653008
6969.28    124.150162    20.511574
6970.48    143.064529    20.995146
6971.68    141.744446    23.415089
6972.88    123.613373    24.406178
6974.08    124.607048    23.522936
6975.28    133.793228    15.950233
6976.48    134.453156    25.950821
6977.68    151.851227    30.754587
6978.87    156.610565    26.643969
6980.07    127.189789    17.084719
6981.27    128.776276    18.842157
6982.47    153.631210    26.035189
6983.67    142.080811    23.629532
6984.87    148.378586    28.880318
6986.07    138.986572    20.364159
6987.27    101.849571    20.738041
6988.47    124.602203    18.505291
6989.67    149.033340    14.730078
6990.87    146.117920    13.798548
6992.07    144.581604    17.131563
6993.27    142.922165    20.192194
6994.47    127.177269    22.171782
6995.67    111.530876    29.176409
6996.87    116.337151    25.357496
6998.07    131.172073    20.229864
6999.27    143.068985    21.556131
7000.47    129.736481    20.395897
7001.67    130.306381    14.623314
7002.87    129.551636    22.832094
7004.07    121.655685    29.272621
7005.27    130.693878    16.196159
7006.47    120.539970    16.215763
7007.67    122.032784    18.877470
7008.87    116.461746    22.126225
7010.07    119.395462    18.385906
7011.27    122.219048    21.693592
7012.47    116.771118    24.606535
7013.66    105.056358    24.148947
7014.86    114.618294    25.405666
7016.06    122.026558    28.004446
7017.26    90.864403    29.579866
7018.46    102.993500    24.001722
7019.66    97.962936    26.167145
7020.86    120.545280    20.467148
7022.06    100.706909    25.755386
7023.26    99.089455    30.348188
7024.46    110.371788    27.090260
7025.66    123.593330    23.877394
7026.86    137.121353    21.206999
7028.06    114.765053    20.228970
7029.26    125.392998    23.068203
7030.46    123.127014    25.433989
7031.66    107.996063    32.793194
7032.86    114.778938    19.058846
7034.06    122.172844    22.296392
7035.26    118.496727    24.611061
7036.46    126.330017    20.612526
7037.66    129.662460    28.172413
7038.86    105.160416    27.899406
7040.06    109.062653    19.400356
7041.26    145.417526    20.533718
7042.46    92.797195    35.724255
7043.66    100.820923    24.622334
7044.86    111.567749    33.276913
7046.06    107.344070    28.294003
7047.26    129.002686    22.085983
7048.45    129.807785    28.575562
7049.65    106.321426    20.744875
7050.85    125.135506    24.035070
7052.05    119.696495    31.015186
7053.25    86.813721    27.343515
7054.45    92.685867    26.167477
7055.65    106.170990    17.808308
7056.85    110.423660    28.472729
7058.05    124.680962    25.782707
7059.25    119.016136    16.886961
7060.45    106.412720    28.421841
7061.65    115.527824    28.580664
7062.85    91.912666    29.376657
7064.05    113.121719    36.939445
7065.25    108.033134    31.595253
