#Regenerated by NED personnel from published spectrum with using UN-SCAN-IT Software.
#Heliocentric Velocity     Flux Density 
#[km/s]                     [mJy]
 4002.350                   0.299100
 4009.570                   0.298300
 4016.730                   0.197600
 4023.740                  -0.203100
 4030.760                  -0.603800
 4037.660                  -1.204500
 4044.670                  -1.605200
 4051.950                  -1.505900
 4059.220                  -1.406600
 4066.390                  -1.507300
 4073.550                  -1.608100
 4080.770                  -1.608800
 4088.200                  -1.209500
 4095.580                  -0.910300
 4103.110                  -0.311000
 4110.540                   0.088200
 4118.180                   0.887500
 4125.600                   1.286700
 4133.080                   1.786000
 4140.510                   2.185200
 4147.580                   1.884500
 4154.280                   0.883900
 4161.290                   0.483200
 4167.880                  -0.717500
 4174.890                  -1.118200
 4181.850                  -1.618900
 4188.910                  -1.919600
 4196.130                  -1.920300
 4203.510                  -1.621100
 4210.990                  -1.121800
 4218.260                  -1.022500
 4225.640                  -0.723300
 4232.650                  -1.124000
 4239.820                  -1.224700
 4246.880                  -1.525400
 4254.100                  -1.526100
 4261.580                  -1.026900
 4269.060                  -0.527600
 4276.700                   0.271600
 4283.920                   0.270900
 4291.350                   0.670200
 4298.520                   0.569400
 4305.320                  -0.231200
 4312.280                  -0.731900
 4319.130                  -1.432600
 4326.400                  -1.333400
 4333.680                  -1.234100
 4340.950                  -1.134800
 4348.120                  -1.235500
 4355.230                  -1.436200
 4362.450                  -1.436900
 4369.830                  -1.137700
 4377.100                  -1.038400
 4384.790                  -0.139200
 4392.110                   0.060100
 4399.650                   0.659300
 4406.970                   0.858600
 4414.140                   0.757900
 4421.250                   0.557200
 4428.420                   0.456400
 4435.540                   0.255700
 4442.550                  -0.145000
 4449.610                  -0.445700
 4456.620                  -0.846400
 4463.630                  -1.247100
 4470.800                  -1.347800
 4477.860                  -1.648500
 4485.240                  -1.349200
 4492.830                  -0.650000
 4500.150                  -0.450700
 4507.320                  -0.551400
 4514.380                  -0.852200
 4521.500                  -1.052900
 4528.610                  -1.253600
 4535.830                  -1.254300
 4543.000                  -1.355000
 4550.380                  -1.055700
 4557.700                  -0.856500
 4565.080                  -0.557200
 4572.300                  -0.557900
 4579.360                  -0.858600
 4586.480                  -1.059400
 4593.590                  -1.260100
 4600.810                  -1.260800
 4608.190                  -0.961500
 4615.510                  -0.762300
 4622.840                  -0.563000
 4630.000                  -0.663700
 4637.120                  -0.864400
 4644.290                  -0.965100
 4651.510                  -0.965900
 4658.780                  -0.866600
 4666.310                  -0.267300
 4673.630                  -0.068100
 4681.170                   0.531200
 4688.390                   0.530500
 4695.550                   0.429700
 4702.620                   0.129000
 4709.680                  -0.171700
 4716.800                  -0.372400
 4723.910                  -0.573100
 4731.030                  -0.773800
 4738.250                  -0.774500
 4745.470                  -0.775300
 4752.690                  -0.776000
 4759.910                  -0.776700
 4767.130                  -0.777400
 4774.400                  -0.678200
 4781.670                  -0.578900
 4788.940                  -0.479600
 4796.160                  -0.480300
 4803.440                  -0.381100
 4810.660                  -0.381800
 4817.870                  -0.382500
 4825.150                  -0.283200
 4832.370                  -0.283900
 4839.430                  -0.584700
 4846.550                  -0.785400
 4853.610                  -1.086100
 4860.830                  -1.086800
 4868.100                  -0.987500
 4875.480                  -0.688300
 4882.700                  -0.689000
 4889.920                  -0.689700
 4897.140                  -0.690400
 4904.360                  -0.691100
 4911.630                  -0.591900
 4919.000                  -0.292600
 4926.280                  -0.193300
 4933.550                  -0.094100
 4940.770                  -0.094800
 4947.990                  -0.095500
 4955.260                   0.003800
 4962.430                  -0.097000
 4969.540                  -0.297700
 4976.710                  -0.398400
 4983.980                  -0.299100
 4991.520                   0.300100
 4999.730                   2.199300
 5007.360                   2.998600
 5014.430                   2.697800
 5022.220                   3.797100
 5031.370                   7.496200
 5039.630                   9.495300
 5046.690                   9.194600
 5053.550                   8.493900
 5060.560                   8.093300
 5067.470                   7.492500
 5074.530                   7.191800
 5081.440                   6.591100
 5088.500                   6.290500
 5095.460                   5.789700
 5102.580                   5.589000
 5109.590                   5.188300
 5116.650                   4.887600
 5123.660                   4.486900
 5130.780                   4.286200
 5137.790                   3.885500
 5144.960                   3.784800
 5152.180                   3.784100
 5159.500                   3.983300
 5166.770                   4.082600
 5173.890                   3.881900
 5181.060                   3.781200
 5187.910                   3.080500
 5195.030                   2.879800
 5202.190                   2.779100
 5209.470                   2.878300
 5217.100                   3.677600
 5224.480                   3.976900
 5231.700                   3.976100
 5238.660                   3.475400
 5245.720                   3.174700
 5252.680                   2.674000
 5259.850                   2.573300
 5267.070                   2.572600
 5274.290                   2.571900
 5281.770                   3.071100
 5289.090                   3.270400
 5296.570                   3.769600
 5303.900                   3.968900
 5311.170                   4.068200
 5318.290                   3.867500
 5325.450                   3.766800
 5332.780                   3.966000
 5340.100                   4.165300
 5347.480                   4.464500
 5354.750                   4.563800
 5361.810                   4.263100
 5368.980                   4.162400
 5376.040                   3.861700
 5383.210                   3.761000
 5390.740                   4.360200
 5398.330                   5.059500
 5405.970                   5.858700
 5413.390                   6.258000
 5420.610                   6.257300
 5427.830                   6.256500
 5434.950                   6.055800
 5442.170                   6.055100
 5449.600                   6.454400
 5457.180                   7.153600
 5464.510                   7.352800
 5471.880                   7.652100
 5478.950                   7.351400
 5485.800                   6.650800
 5492.080                   4.850100
 5498.630                   3.549400
 5505.120                   2.148800
 5511.920                   1.348100
 5518.560                   0.247400
 5525.630                  -0.053300
 5532.640                  -0.454000
 5539.860                  -0.454700
 5547.500                   0.344500
 5554.980                   0.843800
 5562.610                   1.643000
 5569.990                   1.942300
 5576.900                   1.341600
 5583.650                   0.440900
 5590.660                   0.040200
 5597.670                  -0.360500
 5604.890                  -0.361200
 5612.210                  -0.161900
 5619.590                   0.137300
 5627.170                   0.836600
 5634.450                   0.935800
 5641.820                   1.235100
 5648.990                   1.134400
 5656.050                   0.833700
 5663.270                   0.833000
 5670.750                   1.332200
 5678.390                   2.131500
 5685.770                   2.430700
 5693.300                   3.029900
 5700.570                   3.129200
 5707.740                   3.028500
 5714.960                   3.027800
 5722.080                   2.827100
 5729.300                   2.826400
 5736.670                   3.125600
 5744.000                   3.324900
 5751.320                   3.524200
 5758.490                   3.423400
 5765.500                   3.022700
 5772.200                   2.022100
 5779.310                   1.821400
 5786.480                   1.720600
 5793.700                   1.719900
 5801.080                   2.019200
 5808.350                   2.118500
 5815.880                   2.717700
 5823.260                   3.017000
 5830.430                   2.916200
 5837.440                   2.515500
 5844.500                   2.214800
 5851.560                   1.914100
 5858.570                   1.513400
 5865.640                   1.212700
 5872.810                   1.112000
 5879.920                   0.911300
 5886.980                   0.610600
 5894.150                   0.509900
 5901.370                   0.509200
 5908.750                   0.808400
 5916.070                   1.007700
 5923.610                   1.606900
 5930.980                   1.906200
 5938.460                   2.405500
 5945.630                   2.304700
 5952.800                   2.204000
 5960.120                   2.403300
 5967.500                   2.702500
 5974.820                   2.901800
 5982.300                   3.401100
 5989.570                   3.500300
 5996.850                   3.599600
 6004.070                   3.598900
