#Wavelength     Flux    Sky Spectrum 
#[Angstrom]   [Counts]     [Counts]
4510.73    56.053772     9.883187
4511.98    42.258087    12.815067
4513.23    46.706959     9.070835
4514.47    41.707008    13.286545
4515.72    35.082626    18.342415
4516.97    42.247738    16.717070
4518.22    50.753967    11.765128
4519.47    37.597916    10.086836
4520.71    40.114777    10.317698
4521.96    40.479927    15.674333
4523.21    33.208519    18.365454
4524.46    38.053341    11.969784
4525.71    43.808201    10.916921
4526.95    35.028896    10.144010
4528.20    39.069836     7.908185
4529.45    51.678650     7.069063
4530.70    43.194248     8.941016
4531.95    39.581924    11.586239
4533.19    42.123554    11.892990
4534.44    42.442608     9.927108
4535.69    42.755386     9.197461
4536.94    47.929459    11.924870
4538.19    48.074680    13.650816
4539.43    49.030762     9.009787
4540.68    47.230598    10.805984
4541.93    45.468582    16.073713
4543.18    50.000938    10.998279
4544.42    48.339821     9.580477
4545.67    41.865906    11.841120
4546.92    36.937946    10.446474
4548.17    32.226223     9.798120
4549.42    29.173132    14.054190
4550.66    38.393272    11.515978
4551.91    42.084259    10.519816
4553.16    38.341827     7.779760
4554.41    31.355616     6.543863
4555.66    32.338963     7.639542
4556.90    47.480103     3.663425
4558.15    39.930035    13.248466
4559.40    39.892460    14.601363
4560.65    46.239597     9.938756
4561.90    48.143616     9.780732
4563.14    52.115742     8.009513
4564.39    39.100151     9.433001
4565.64    40.058800    11.100761
4566.89    45.417149    10.165271
4568.14    43.169819    10.963770
4569.38    39.520008    15.258307
4570.63    35.736828    15.251717
4571.88    43.752850    12.808792
4573.13    53.968498    10.897707
4574.38    46.722477     9.199558
4575.62    34.249687    11.272840
4576.87    43.089878    15.986485
4578.12    52.430168     8.896487
4579.37    50.369705    10.727166
4580.61    46.246937    13.400148
4581.86    48.749454     8.972739
4583.11    54.816246     4.626276
4584.36    55.292839     4.908636
4585.61    48.503288     6.722400
4586.85    58.361702     7.258127
4588.10    57.025818    10.022708
4589.35    45.379635    11.742299
4590.60    50.951027     8.717098
4591.85    56.828659     7.987414
4593.09    54.797150     8.514259
4594.34    47.759800    10.863744
4595.59    40.835674    12.382715
4596.84    39.501389    11.726741
4598.09    40.733017    12.229497
4599.33    36.057457    15.714858
4600.58    41.774380    15.681673
4601.83    50.934658     7.777628
4603.08    46.032452     6.330509
4604.33    37.010994    10.173230
4605.57    41.622536     7.930757
4606.82    46.654888     9.786016
4608.07    50.089188    10.842084
4609.32    57.772980    11.660597
4610.57    48.366577    11.897402
4611.81    37.082516    10.340276
4613.06    49.285889     7.676265
4614.31    51.465069     5.977719
4615.56    43.000370     7.627127
4616.80    45.732594     7.876127
4618.05    49.581837     9.331587
4619.30    42.931633    13.399683
4620.55    36.833614    14.802379
4621.80    42.612804    11.154860
4623.04    49.805771     9.420781
4624.29    38.747784    14.260615
4625.54    39.263092    15.398146
4626.79    58.924713     9.266295
4628.04    64.275162     7.935994
4629.28    43.733189    15.034989
4630.53    33.273998    11.205337
4631.78    45.723461     5.841853
4633.03    54.425167     5.187267
4634.28    50.711327     9.309270
4635.52    51.884972    10.008661
4636.77    61.406521     6.126116
4638.02    61.100327    12.513584
4639.27    61.159622    12.467438
4640.52    53.013397    12.537183
4641.76    48.858040     8.857386
4643.01    55.718594     4.867547
4644.26    64.397774     8.576711
4645.51    67.221321    10.947954
4646.76    51.792286    12.171667
4648.00    46.377033    10.197434
4649.25    46.947113    12.082182
4650.50    47.986435    16.501522
4651.75    48.359707    16.529106
4652.99    49.675961    12.736080
4654.24    64.443398     9.246264
4655.49    55.644115     8.222675
4656.74    44.728844     7.113958
4657.99    38.826370     7.809514
4659.23    45.027039     6.849910
4660.48    55.378548     5.631979
4661.73    41.153347    12.912653
4662.98    45.868992    11.949917
4664.23    53.367016     7.548183
4665.47    52.833290     8.461770
4666.72    49.940857    12.895178
4667.97    46.881378    15.333141
4669.22    46.551884    13.626782
4670.47    57.247501     9.143080
4671.71    58.801338    11.015995
4672.96    49.602398    13.649906
4674.21    45.078865    14.020587
4675.46    50.904659    14.161505
4676.71    51.430187    13.640908
4677.95    39.846252    12.009038
4679.20    43.480927    15.198907
4680.45    53.237312    19.885990
4681.70    55.036194    16.790169
4682.95    57.279362    13.122186
4684.19    61.445709    14.609528
4685.44    54.010040    16.179449
4686.69    42.971863    16.984196
4687.94    51.829926    16.571259
4689.18    41.394726    12.650158
4690.43    48.393875    13.721968
4691.68    54.694450    13.795989
4692.93    44.346992    11.009174
4694.18    51.647640    13.038621
4695.42    51.551731    11.152747
4696.67    41.900295    11.219864
4697.92    39.272610    15.234930
4699.17    44.527229    14.080997
4700.42    57.186779     7.372241
4701.66    64.173683     7.162735
4702.91    57.125496    13.002421
4704.16    66.828522     7.531415
4705.41    55.493397     8.473051
4706.66    47.451733    13.034759
4707.90    45.063026    13.742734
4709.15    48.136421    13.093244
4710.40    56.103466    14.105720
4711.65    52.004322    13.998910
4712.90    59.028481    13.991294
4714.14    58.148884    13.636418
4715.39    48.009037    10.957321
4716.64    49.343475    10.569311
4717.89    52.544151    12.126337
4719.14    40.616692    13.591156
4720.38    40.594990    17.100904
4721.63    56.028233    10.334106
4722.88    55.764317    15.900593
4724.13    51.807323    14.834941
4725.38    57.130280    11.430585
4726.62    60.887630    13.560616
4727.87    52.813271    11.252080
4729.12    42.997280    16.914293
4730.37    51.615284    12.153191
4731.61    55.840122    12.297079
4732.86    62.167614    14.727471
4734.11    66.759628    13.243695
4735.36    55.595009    13.570262
4736.61    47.222233    15.968086
4737.85    61.440674    13.131484
4739.10    64.875526    14.727476
4740.35    56.838123    13.077399
4741.60    50.354340    13.050883
4742.85    48.770927    17.389675
4744.09    50.702003    17.445841
4745.34    53.999592    11.971546
4746.59    53.139809     8.943184
4747.84    63.140301    11.497899
4749.09    59.999157    15.517871
4750.33    51.493011    17.796200
4751.58    46.419743    15.636890
4752.83    41.517696    10.558542
4754.08    53.491844     9.071717
4755.33    59.004650     7.610129
4756.57    58.218372    12.200830
4757.82    62.424847    13.907862
4759.07    56.238930    10.521494
4760.32    51.534706     8.942189
4761.57    72.132957     8.894561
4762.81    72.090828     7.006342
4764.06    58.273243     9.639149
4765.31    51.523151    14.266251
4766.56    57.654724    13.837095
4767.80    64.377052    11.796984
4769.05    63.712730    11.712581
4770.30    63.005005    10.008023
4771.55    64.542404    11.972804
4772.80    66.829094     9.681303
4774.04    60.400997     9.955406
4775.29    51.290386    10.872640
4776.54    49.084988    12.083349
4777.79    52.655403    16.260979
4779.04    58.679077    15.997815
4780.28    65.443657    17.005087
4781.53    71.131195    15.222849
4782.78    66.550110    12.826505
4784.03    55.902824    11.396063
4785.28    50.289303    13.069523
4786.52    51.201099    16.966764
4787.77    54.879555    13.165039
4789.02    54.561764    15.984874
4790.27    64.447662    16.371609
4791.52    68.101898    14.187195
4792.76    61.244064    14.018604
4794.01    60.017956    12.480043
4795.26    61.895725     9.964182
4796.51    67.183136    14.416334
4797.76    68.041534    13.726210
4799.00    60.327065    13.944107
4800.25    52.611572    14.559482
4801.50    52.628395    14.748022
4802.75    59.728928    16.777418
4803.99    69.701500     9.528274
4805.24    64.222565    10.572252
4806.49    55.839062    13.856897
4807.74    60.137150     9.960613
4808.99    64.604286     7.612649
4810.23    59.702648    13.939485
4811.48    62.834366    16.092688
4812.73    64.475815    11.321645
4813.98    52.371178    14.575252
4815.23    48.124886    18.166952
4816.47    59.825127    12.714036
4817.72    75.438049     6.438693
4818.97    80.672447     8.081581
4820.22    66.731064     9.580103
4821.47    73.123238    13.483671
4822.71    68.549660    12.415974
4823.96    57.490341    14.495117
4825.21    51.122173    19.522676
4826.46    48.121208    16.558416
4827.71    67.833435    13.996414
4828.95    69.604736    15.696754
4830.20    59.244755    15.237828
4831.45    59.272060    16.108553
4832.70    67.451660    16.170633
4833.95    68.523422    12.706800
4835.19    62.179222    13.933991
4836.44    58.596355    16.634956
4837.69    71.870705    16.666382
4838.94    77.141281    10.821937
4840.18    62.763271     8.600735
4841.43    51.486584    12.435142
4842.68    58.175560    13.051366
4843.93    58.862484    17.331467
4845.18    45.806252    18.583239
4846.42    74.072571    11.912482
4847.67    88.880249     9.922325
4848.92    74.786247    12.877953
4850.17    85.546768    11.127565
4851.42    60.339073    16.578848
4852.66    63.555241    14.452019
4853.91    80.008797     7.050253
4855.16    75.233543     8.693764
4856.41    63.919636    14.667061
4857.66    68.344238    14.100141
4858.90    67.509430    16.916636
4860.15    62.472717    13.950254
4861.40    63.722435     7.869688
4862.65    57.681808     8.991894
4863.90    49.550262    13.785889
4865.14    58.243439    12.782431
4866.39    66.140648    11.068305
4867.64    58.397640    11.063177
4868.89    61.108742    10.444037
4870.14    65.554283    13.207045
4871.38    66.193336    16.086290
4872.63    69.848320    15.106558
4873.88    63.531212    18.645832
4875.13    59.817738    20.547644
4876.37    51.444920    16.804001
4877.62    61.571102    14.934854
4878.87    77.625504    14.041801
4880.12    71.474136    13.625960
4881.37    71.768066    22.686253
4882.61    73.488541    17.655762
4883.86    75.455894    12.031322
4885.11    75.556839    12.735547
4886.36    73.412186    12.267945
4887.61    75.613731     8.834386
4888.85    81.547241     9.666632
4890.10    65.936165    13.355253
4891.35    49.785534    18.443970
4892.60    59.346619    16.682663
4893.85    72.299995    11.351931
4895.09    62.595455    12.017476
4896.34    63.311932    11.762414
4897.59    66.761726    15.484282
4898.84    66.263115    18.219349
4900.09    69.915688    17.349871
4901.33    78.575546    15.728792
4902.58    78.900085    16.028801
4903.83    69.322327    18.025045
4905.08    68.367821    16.456158
4906.33    75.794678    20.880173
4907.57    78.912292    18.077719
4908.82    77.034935     9.173563
4910.07    77.169525    16.939400
4911.32    69.211884    10.235508
4912.57    70.120354    12.943177
4913.81    74.885185    19.053383
4915.06    72.234779    16.668232
4916.31    66.710510    14.063333
4917.56    70.039223    16.089001
4918.80    81.708656    12.015805
4920.05    88.492699    11.995341
4921.30    88.780632    12.208646
4922.55    85.930000    13.492264
4923.80    84.114029    20.013308
4925.04    88.674583    14.693919
4926.29    77.408821    15.838059
4927.54    77.780945    15.883969
4928.79    86.683746    11.603817
4930.04    81.599869    12.848520
4931.28    74.151207    18.023272
4932.53    76.568344    13.293476
4933.78    80.270592    18.617247
4935.03    78.137856    23.768803
4936.28    76.333145    17.857817
4937.52    80.195663    11.811211
4938.77    79.159660    11.805489
4940.02    69.909103    12.927107
4941.27    74.685646    17.153049
4942.52    78.754288    20.647837
4943.76    73.178925    18.289677
4945.01    80.712563    15.000858
4946.26    79.238167    18.013025
4947.51    70.246330    19.889101
4948.76    66.749413    20.462709
4950.00    75.480911    20.881691
4951.25    85.031029    21.108631
4952.50    79.971947    24.077667
4953.75    88.515518    20.028265
4954.99    94.211426    17.288290
4956.24    91.114586    15.849728
4957.49    91.140572    12.988257
4958.74    89.672699    16.526066
4959.99    80.004158    20.581905
4961.23    84.586662    20.249098
4962.48    90.645844    21.126823
4963.73    94.514198    21.070749
4964.98    105.069618    15.993170
4966.23    84.992905    21.306128
4967.47    70.291611    18.351685
4968.72    85.945801    13.697581
4969.97    103.989456    15.977501
4971.22    94.161873    20.248098
4972.47    81.513466    23.879456
4973.71    86.318733    21.873283
4974.96    88.157623    17.750547
4976.21    91.392006    17.722599
4977.46    102.413879    20.008415
4978.71    95.515923    19.580338
4979.95    85.131660    25.956562
4981.20    86.802742    23.507431
4982.45    89.710838    18.122789
4983.70    82.536095    20.407198
4984.95    76.899948    20.265427
4986.19    86.578896    14.718355
4987.44    108.012566    11.458504
4988.69    99.402206    16.100912
4989.94    80.673386    22.803659
4991.18    105.198975    20.312510
4992.43    107.950096    11.382339
4993.68    85.148438    17.300562
4994.93    78.895226    21.844456
4996.18    87.064735    17.576921
4997.42    81.984268    18.991810
4998.67    92.404007    17.188379
4999.92    96.140587    12.269176
5001.17    92.215240    14.991184
5002.42    98.394707    20.314199
5003.66    111.022812    15.941014
5004.91    101.915955    12.015880
5006.16    93.673744    14.410311
5007.41    86.518341    16.267933
5008.66    76.667679    16.347143
5009.90    79.331322    18.000263
5011.15    105.566536    16.330814
5012.40    117.856422    16.527777
5013.65    101.507881    20.054092
5014.90    93.143661    18.183603
5016.14    106.966385    13.076714
5017.39    88.098610    23.682011
5018.64    83.015862    20.555590
5019.89    86.435196    17.715012
5021.14    81.371429    22.726978
5022.38    80.060135    20.965122
5023.63    91.078217    18.034750
5024.88    92.023170    20.392738
5026.13    83.908119    25.280767
5027.37    86.948822    23.317934
5028.62    102.904007    15.038044
5029.87    101.087883    16.491127
5031.12    88.972038    15.085297
5032.37    91.194450     9.234996
5033.61    100.425758     8.948931
5034.86    87.902779    16.732910
5036.11    67.568649    20.016184
5037.36    86.559212    19.127954
5038.61    101.321266    17.133886
5039.85    88.618179    17.429901
5041.10    90.669556    20.014980
5042.35    92.598557    17.028143
5043.60    94.928459    16.198435
5044.85    100.627838    19.354071
5046.09    109.342628    19.558006
5047.34    114.711563    15.840471
5048.59    101.128876    21.850504
5049.84    95.550774    22.923016
5051.09    110.879265    15.114683
5052.33    125.190079     9.898532
5053.58    112.434166    12.905885
5054.83    88.094742    18.836056
5056.08    76.490562    22.522728
5057.33    84.848450    22.835640
5058.57    101.151131    20.970381
5059.82    109.647621    17.279516
5061.07    107.406998    12.175037
5062.32    101.537010    12.061500
5063.56    110.063698    16.897787
5064.81    128.136322    18.158947
5066.06    106.721901    13.902739
5067.31    96.778206    14.279581
5068.56    104.254669    20.924389
5069.80    99.501831    24.944632
5071.05    86.409843    21.332308
5072.30    95.531052    22.514780
5073.55    109.677658    25.114388
5074.80    103.057922    24.546867
5076.04    83.733383    22.985306
5077.29    86.665596    23.138374
5078.54    100.013931    21.414225
5079.79    97.677010    19.163874
5081.04    92.159744    20.819637
5082.28    104.722130    25.779104
5083.53    95.612915    25.651920
5084.78    88.765022    24.406822
5086.03    92.616470    23.543694
5087.28    104.881866    21.864979
5088.52    126.478859    21.579044
5089.77    109.850487    24.549580
5091.02    87.486877    19.796566
5092.27    94.245934    12.144485
5093.52    109.981956    14.820267
5094.76    98.742867    18.758276
5096.01    111.583397    17.281019
5097.26    123.970901    14.050608
5098.51    118.813766    14.181868
5099.76    133.730957    15.949516
5101.00    115.787186    15.810902
5102.25    84.310760    24.565598
5103.50    81.512016    33.862644
5104.75    101.796455    30.107496
5105.99    96.008522    27.144611
5107.24    98.303848    21.815851
5108.49    104.685448    16.249750
5109.74    105.894402    15.067299
5110.99    115.361397    17.358562
5112.23    101.157791    21.406893
5113.48    90.668221    24.042744
5114.73    98.341927    23.645693
5115.98    101.303497    22.930281
5117.23    90.326416    26.705208
5118.47    105.907158    28.852587
5119.72    123.477951    24.545044
5120.97    117.655991    16.378727
5122.22    113.456924    13.184669
5123.47    88.412590    21.200256
5124.71    94.399368    25.177299
5125.96    128.718475    21.442156
5127.21    126.830208    20.185400
5128.46    101.850677    16.956530
5129.71    98.018723    16.109646
5130.95    101.382385    19.230654
5132.20    94.090195    23.069042
5133.45    111.889587    24.430317
5134.70    127.665382    21.438183
5135.95    118.731575    20.370953
5137.19    100.827568    23.327349
5138.44    104.324120    22.832844
5139.69    110.791100    16.403742
5140.94    91.608444    20.558485
5142.18    75.751816    26.637547
5143.43    97.605057    17.548328
5144.68    107.543022    15.505464
5145.93    117.302681    20.346699
5147.18    115.936554    21.143705
5148.42    96.703300    18.028637
5149.67    98.193535    23.552851
5150.92    112.671791    25.635412
5152.17    104.725159    25.116749
5153.42    88.368118    24.708668
5154.66    110.256607    21.185148
5155.91    116.714798    23.022203
5157.16    116.441422    22.835588
5158.41    124.602570    16.665106
5159.66    125.998619    12.837837
5160.90    110.755569    17.378956
5162.15    106.817108    14.645687
5163.40    110.716530    13.859497
5164.65    104.184052    24.834003
5165.90    103.479462    21.635433
5167.14    108.436066    20.945465
5168.39    102.484512    24.947355
5169.64    94.298943    22.780115
5170.89    114.668068    15.289059
5172.14    112.681282    14.440684
5173.38    114.948219    18.824270
5174.63    137.378616    21.004805
5175.88    133.707184    18.774265
5177.13    111.919724    15.623699
5178.37    89.209740    18.453482
5179.62    88.578293    23.220137
5180.87    110.165298    20.546698
5182.12    99.567490    17.773092
5183.37    112.583549    12.982419
5184.61    134.595810    13.534210
5185.86    113.053551    24.359301
5187.11    121.054802    23.918484
5188.36    114.427162    20.956015
5189.61    92.574921    22.765303
5190.85    91.076042    26.752069
5192.10    87.177017    30.366463
5193.35    95.796371    26.427341
5194.60    104.279633    23.229172
5195.85    99.990150    27.955217
5197.09    106.361526    30.086811
5198.34    100.779762    34.760796
5199.59    89.345558    42.844170
5200.84    94.389275    43.780510
5202.09    112.971451    29.199379
5203.33    113.327545    25.717245
5204.58    107.434555    27.652975
5205.83    112.293083    22.721909
5207.08    112.923889    20.033337
5208.33    101.669762    21.362242
5209.57    96.160690    26.448463
5210.82    104.806526    28.737822
5212.07    109.303154    21.464134
5213.32    98.071678    19.156620
5214.56    92.204498    20.165701
5215.81    102.187119    21.345501
5217.06    113.779961    24.452515
5218.31    129.256027    17.900345
5219.56    129.852478    14.011501
5220.80    118.265663    22.406437
5222.05    117.745773    31.774216
5223.30    110.244713    25.986332
5224.55    119.873856    19.652536
5225.80    133.179565    23.845226
5227.04    107.889793    27.673792
5228.29    94.929695    19.151686
5229.54    92.293808    15.507984
5230.79    97.194397    20.228256
5232.04    114.917351    17.593948
5233.28    99.028000    16.529501
5234.53    96.087296    17.400246
5235.78    116.422371    22.275419
5237.03    111.127365    31.645813
5238.28    104.495964    25.938251
5239.52    113.385254    19.693167
5240.77    127.025589    19.663467
5242.02    126.099442    15.281356
5243.27    120.459633    18.385092
5244.52    113.662483    27.035137
5245.76    108.761917    29.516863
5247.01    110.305534    21.317135
5248.26    112.620361    19.212458
5249.51    107.450272    17.011042
5250.75    108.656219    14.287737
5252.00    131.165131    21.573086
5253.25    128.393372    24.211048
5254.50    109.282692    24.650963
5255.75    107.146179    25.919249
5256.99    128.166763    22.276123
5258.24    132.537109    18.046972
5259.49    123.522736    22.221020
5260.74    124.746796    27.853060
5261.99    139.811279    18.487087
5263.23    138.145538    14.556481
5264.48    125.787727    21.380209
5265.73    122.086266    25.871887
5266.98    126.212036    17.065826
5268.23    120.645973    15.665564
5269.47    120.721703    20.119358
5270.72    131.014435    19.984377
5271.97    123.782082    17.691273
5273.22    125.182617    16.472593
5274.47    125.687408    19.668232
5275.71    108.527420    25.866877
5276.96    99.065666    27.985916
5278.21    124.249748    27.611572
5279.46    144.314255    23.007605
5280.71    126.130142    17.003325
5281.95    123.269737    22.130264
5283.20    136.302765    22.666334
5284.45    139.181595    18.712849
5285.70    120.358406    20.776501
5286.95    105.432167    20.787920
5288.19    100.195114    19.282974
5289.44    98.602356    20.640963
5290.69    98.806511    24.742403
5291.94    110.716003    23.396503
5293.18    116.131927    21.893877
5294.43    107.762642    24.429119
5295.68    103.448654    25.834106
5296.93    118.153381    18.717289
5298.18    133.672913    15.108323
5299.42    135.936295    19.178223
5300.67    132.817841    20.110834
5301.92    125.366089    25.659811
5303.17    124.169151    26.675558
5304.42    123.942146    20.995611
5305.66    105.732819    25.468693
5306.91    115.533226    26.274828
5308.16    130.477570    21.863016
5309.41    121.110870    20.887104
5310.66    132.460999    23.422573
5311.90    146.874542    19.453388
5313.15    153.298798    16.673513
5314.40    152.007523    24.317204
5315.65    128.576065    23.909176
5316.90    120.966713    18.129694
5318.14    126.184654    17.601677
5319.39    112.207695    24.205330
5320.64    119.133408    23.624874
5321.89    130.994125    19.696611
5323.14    133.375412    19.025196
5324.38    139.757538    19.801411
5325.63    129.504517    19.988264
5326.88    127.164490    18.047394
5328.13    143.880524    17.933050
5329.37    139.073425    25.540995
5330.62    127.741379    24.492619
5331.87    134.500031    17.896027
5333.12    152.667679    17.840256
5334.37    138.169281    19.909416
5335.61    111.992783    25.627762
5336.86    98.994102    28.667667
5338.11    102.674423    24.066118
5339.36    118.873383    28.882254
5340.61    140.926407    31.307810
5341.85    154.189590    23.298519
5343.10    147.829620    16.071510
5344.35    147.439087    14.703240
5345.60    160.434219    16.706823
5346.85    165.289017    17.037085
5348.09    138.583023    14.672136
5349.34    132.473633    18.396915
5350.59    134.255661    23.518642
5351.84    116.374420    21.428488
5353.09    131.136368    18.637732
5354.33    143.027191    17.899113
5355.58    139.086685    17.935961
5356.83    144.036804    18.238771
5358.08    136.060318    24.161221
5359.33    119.946495    31.636061
5360.57    117.339622    35.033772
5361.82    135.435776    33.997868
5363.07    134.592789    30.646690
5364.32    119.490845    27.014633
5365.56    123.267342    25.018476
5366.81    152.161667    25.253351
5368.06    149.004456    20.192549
5369.31    132.535736    16.298491
5370.56    152.151810    22.941145
5371.80    143.390808    24.350447
5373.05    132.013916    22.402683
5374.30    144.891769    20.824757
5375.55    156.578079    17.272835
5376.80    156.614319    18.954021
5378.04    149.913666    20.841982
5379.29    146.023956    19.828465
5380.54    149.023026    25.893278
5381.79    156.334946    27.413048
5383.04    161.379349    21.986073
5384.28    155.261261    18.304930
5385.53    134.400925    17.680079
5386.78    139.339447    15.644836
5388.03    157.735748    16.409575
5389.28    130.303757    28.133121
5390.52    119.465485    31.748634
5391.77    127.487419    28.078772
5393.02    128.698853    26.177526
5394.27    135.761139    22.783066
5395.52    133.588028    19.189234
5396.76    128.281891    18.081600
5398.01    136.004379    19.721643
5399.26    134.622833    20.331797
5400.51    130.173813    22.244640
5401.75    141.776428    26.099092
5403.00    169.818115    26.562962
5404.25    165.863632    19.908463
5405.50    147.231537    18.204681
5406.75    149.493469    25.781853
5407.99    150.378296    20.991669
5409.24    143.743347    18.578327
5410.49    128.399384    27.420441
5411.74    109.179405    35.802994
5412.99    111.166145    30.962423
5414.23    128.850800    25.279476
5415.48    143.835754    26.036541
5416.73    149.556229    20.929184
5417.98    157.330063    22.460135
5419.23    150.159866    25.693771
5420.47    119.949852    19.780767
5421.72    119.510284    18.717440
5422.97    130.500916    20.752972
5424.22    136.713211    22.125128
5425.47    151.417908    24.439945
5426.71    156.549255    25.027269
5427.96    147.169968    19.505812
5429.21    133.849564    13.733841
5430.46    128.210678    23.874306
5431.71    122.031616    27.004520
5432.95    119.726982    20.575993
5434.20    133.596695    21.306267
5435.45    148.954941    16.660732
5436.70    145.478149    14.902302
5437.94    132.027618    20.926764
5439.19    144.197144    20.472067
5440.44    155.563812    17.233059
5441.69    149.620834    19.138319
5442.94    140.423676    25.629074
5444.18    153.274475    23.054247
5445.43    155.287506    21.859533
5446.68    134.212357    27.164726
5447.93    125.426422    27.820288
5449.18    135.136307    24.995749
5450.42    145.003006    24.422155
5451.67    138.562851    27.702679
5452.92    127.664619    27.808535
5454.17    140.954620    23.550385
5455.42    161.372177    22.396492
5456.66    148.685196    32.764091
5457.91    145.564331    46.974236
5459.16    148.111923    57.673416
5460.41    138.682053    61.916603
5461.66    134.797348    60.518860
5462.90    142.111649    53.936523
5464.15    145.026184    47.459293
5465.40    131.167419    44.620300
5466.65    131.093597    34.758949
5467.90    134.721909    28.410212
5469.14    130.981552    29.142605
5470.39    136.295151    20.520096
5471.64    136.276398    19.741131
5472.89    130.333755    28.361698
5474.14    138.305954    30.241011
5475.38    173.209793    20.983822
5476.63    176.396042    20.589825
5477.88    138.059128    31.986217
5479.13    131.603088    30.712112
5480.37    131.292252    28.383038
5481.62    131.519257    27.297338
5482.87    143.676666    22.484848
5484.12    143.898804    22.777031
5485.37    145.497040    24.165014
5486.61    145.634674    27.203787
5487.86    122.135605    38.134865
5489.11    131.208588    36.557144
5490.36    157.694260    26.039717
5491.61    156.347244    23.583885
5492.85    150.409637    28.083141
5494.10    156.525345    29.656771
5495.35    156.124451    26.946653
5496.60    125.237083    27.762655
5497.85    130.050171    27.092701
5499.09    147.461319    24.353695
5500.34    132.648514    22.277702
5501.59    132.817200    20.733355
5502.84    137.847092    22.267796
5504.09    135.982086    26.196554
5505.33    138.232330    28.459480
5506.58    138.884476    29.854578
5507.83    136.160126    27.897343
5509.08    136.173218    23.947910
5510.33    145.382874    28.131680
5511.57    142.742935    28.800594
5512.82    134.167679    23.847305
5514.07    148.172211    24.762512
5515.32    155.597198    23.684984
5516.56    144.858139    23.869143
5517.81    136.591187    29.484303
5519.06    163.100845    29.752714
5520.31    187.621170    23.558723
5521.56    181.843002    19.017027
5522.80    158.626816    24.384506
5524.05    140.368164    31.059057
5525.30    138.052887    31.091824
5526.55    147.657227    24.778692
5527.80    153.637634    21.697412
5529.04    144.593124    25.806913
5530.29    132.859818    31.102373
5531.54    141.957001    28.927349
5532.79    154.700287    28.018219
5534.04    155.673416    30.883871
5535.28    142.501572    33.054352
5536.53    126.467491    29.970301
5537.78    131.039825    21.919598
5539.03    153.012741    17.063448
5540.28    162.106659    23.544275
5541.52    154.444763    28.108562
5542.77    148.027924    31.343685
5544.02    159.163300    36.151176
5545.27    177.295120    29.930145
5546.52    174.227249    25.701124
5547.76    149.049561    29.087347
5549.01    134.009109    27.411409
5550.26    140.352325    19.502672
5551.51    141.306808    18.367952
5552.75    131.707047    26.921127
5554.00    173.544769    19.264868
5555.25    177.824478    19.730047
5556.50    135.790436    32.051876
5557.75    162.741592    24.387653
5558.99    176.313950    25.101376
5560.24    165.406876    29.213427
5561.49    171.060852    20.326920
5562.74    160.608246    27.768629
5563.99    145.361542    34.044983
5565.23    139.028976    28.014153
5566.48    133.137299    30.187420
5567.73    141.190353    32.825832
5568.98    157.473007    27.213770
5570.23    162.179794    18.773884
5571.47    151.513062    29.551041
5572.72    139.944138    55.677750
5573.97    145.389023    106.378464
5575.22    171.660797    204.292511
5576.47    188.608124    271.910065
5577.71    198.542175    274.064636
5578.96    211.255783    238.203445
5580.21    178.543518    193.951920
5581.46    160.086349    145.549377
5582.71    185.353699    94.962067
5583.95    172.998108    57.092327
5585.20    169.654724    29.324245
5586.45    178.127121    19.509068
5587.70    153.895020    33.327873
5588.94    140.128021    33.287766
5590.19    143.563690    26.091480
5591.44    153.287613    27.954563
5592.69    171.856033    25.291704
5593.94    165.729095    24.810694
5595.18    146.640137    29.338474
5596.43    159.494995    31.305536
5597.68    169.464874    28.993879
5598.93    163.461548    25.053608
5600.18    151.658447    23.758463
5601.42    142.610687    27.262180
5602.67    144.798523    29.056927
5603.92    156.486511    26.916698
5605.17    168.496735    25.920485
5606.42    184.572739    26.582207
5607.66    183.138779    28.536058
5608.91    151.541336    31.417110
5610.16    132.893188    34.288826
5611.41    139.050079    34.670692
5612.66    153.956406    31.026081
5613.90    154.678314    25.271179
5615.15    148.201904    24.406368
5616.40    150.866852    25.980886
5617.65    161.822205    23.646618
5618.90    145.433182    21.961393
5620.14    134.805481    24.520191
5621.39    147.726776    30.667641
5622.64    142.066498    35.512634
5623.89    144.757645    34.587234
5625.13    153.890930    27.986551
5626.38    143.816360    21.441296
5627.63    145.521790    24.013407
5628.88    151.166458    32.695335
5630.13    147.105545    36.403118
5631.37    152.085831    27.569267
5632.62    163.825623    24.877951
5633.87    167.585785    30.121502
5635.12    155.773499    27.083651
5636.37    154.293030    26.221436
5637.61    161.280319    26.566723
5638.86    162.174393    21.891397
5640.11    159.583908    17.902390
5641.36    146.578674    24.921001
5642.61    130.849625    36.081947
5643.85    133.572144    33.011456
5645.10    141.029541    34.727627
5646.35    141.314865    38.830826
5647.60    139.376755    31.798538
5648.85    154.838348    25.267572
5650.09    166.611130    21.938223
5651.34    159.368286    20.040409
5652.59    152.922287    19.998268
5653.84    163.148239    23.180935
5655.09    175.383163    26.109234
5656.33    166.568527    26.651058
5657.58    156.252396    35.090645
5658.83    156.315018    37.577602
5660.08    162.664246    26.787275
5661.33    161.461838    24.141842
5662.57    154.168625    25.294369
5663.82    154.853958    26.204226
5665.07    172.796143    30.017262
5666.32    181.622253    31.370955
5667.56    173.994186    29.328812
5668.81    158.623840    28.527096
5670.06    143.932724    34.006943
5671.31    145.759659    34.827393
5672.56    159.165619    27.875568
5673.80    160.889297    25.366238
5675.05    163.350021    32.410789
5676.30    159.457642    39.516087
5677.55    140.059723    37.464252
5678.80    135.975891    37.458950
5680.04    150.865128    37.478886
5681.29    163.069855    36.860699
5682.54    149.029434    43.075451
5683.79    137.067780    44.094048
5685.04    149.007706    40.980282
5686.28    172.892380    44.691135
5687.53    165.246155    47.915344
5688.78    152.319427    47.589207
5690.03    160.595581    44.490196
5691.28    155.966354    38.827251
5692.52    154.753159    31.167719
5693.77    163.396896    25.885185
5695.02    166.200073    26.898136
5696.27    173.796677    25.356943
5697.52    165.147079    26.238256
5698.76    135.016464    33.505547
5700.01    146.316025    30.632263
5701.26    177.900238    23.522497
5702.51    188.994965    22.001928
5703.75    172.656967    25.387016
5705.00    159.091599    24.718678
5706.25    152.268738    24.800156
5707.50    137.193237    32.164085
5708.75    121.923737    31.035145
5709.99    127.950104    31.966200
5711.24    155.378616    38.117702
5712.49    168.914154    28.768932
5713.74    153.032913    26.464315
5714.99    137.262848    33.261711
5716.23    158.522629    30.067600
5717.48    174.516693    29.017525
5718.73    170.508270    26.052168
5719.98    164.365906    18.231941
5721.23    177.881042    22.997574
5722.47    182.277100    27.932594
5723.72    169.612106    28.129393
5724.97    168.016190    33.483627
5726.22    173.857162    30.296364
5727.47    170.545837    21.604486
5728.71    151.660843    20.332607
5729.96    139.132538    25.406981
5731.21    144.115585    28.130318
5732.46    152.109970    25.094086
5733.71    138.034790    23.118811
5734.95    138.559616    27.060793
5736.20    156.055069    32.424065
5737.45    166.179291    30.691847
5738.70    184.259674    23.042065
5739.94    182.100861    20.720390
5741.19    155.125839    28.258291
5742.44    160.952240    33.887741
5743.69    159.866180    35.086365
5744.94    150.656860    31.498127
5746.18    178.308167    23.926498
5747.43    201.397537    20.671453
5748.68    192.408310    22.789171
5749.93    164.059982    25.740873
5751.18    157.216263    25.890800
5752.42    153.351822    24.324270
5753.67    150.157867    25.044584
5754.92    173.848633    30.398453
5756.17    172.180313    32.012417
5757.42    160.847412    26.591631
5758.66    177.169388    21.363720
5759.91    163.538361    30.298140
5761.16    149.330170    37.712254
5762.41    161.489716    30.568972
5763.66    162.857529    22.220734
5764.90    163.550766    29.693962
5766.15    167.007736    46.596771
5767.40    162.227432    52.383774
5768.65    154.760742    48.621452
5769.90    148.246933    42.352169
5771.14    145.713852    39.110672
5772.39    151.807556    38.828400
5773.64    158.478973    33.177502
5774.89    161.106155    27.017927
5776.13    162.331360    32.730133
5777.38    160.113419    31.301567
5778.63    157.895935    23.715292
5779.88    160.245667    22.598125
5781.13    164.452576    26.081938
5782.37    166.023590    30.907555
5783.62    162.069931    33.988335
5784.87    155.260040    33.504494
5786.12    158.907028    32.826328
5787.37    160.735764    34.454613
5788.61    147.831635    38.648369
5789.86    155.939026    44.146240
5791.11    167.507187    45.687973
5792.36    163.257629    43.077248
5793.61    164.161057    43.378983
5794.85    167.064529    37.631123
5796.10    164.370956    28.445503
5797.35    155.657333    28.178461
5798.60    149.597061    30.335814
5799.85    156.904831    29.208923
5801.09    172.908264    26.092907
5802.34    170.131409    28.761925
5803.59    152.113205    37.306858
5804.84    145.432983    40.793514
5806.09    169.701950    28.958769
5807.33    181.962906    23.298458
5808.58    173.790298    25.152216
5809.83    162.615097    24.715261
5811.08    148.492661    28.429756
5812.32    142.551270    31.560064
5813.57    143.096497    31.960638
5814.82    136.567642    35.425106
5816.07    159.805069    34.107422
5817.32    189.810211    25.318613
5818.56    176.434387    17.657738
5819.81    153.339432    25.654633
5821.06    139.883942    34.064911
5822.31    142.825592    29.497141
5823.56    163.055923    25.495560
5824.80    160.111801    31.723963
5826.05    143.746124    39.075272
5827.30    158.620819    32.593380
5828.55    172.994675    27.115042
5829.80    161.778885    31.065407
5831.04    144.716873    37.181053
5832.29    176.476532    29.531269
5833.54    186.554214    27.580402
5834.79    159.317429    35.154629
5836.04    163.669815    33.347134
5837.28    165.731064    35.719269
5838.53    157.637680    37.042397
5839.78    154.661530    28.172586
5841.03    149.441956    27.059704
5842.28    147.289047    31.984739
5843.52    161.844711    33.019123
5844.77    194.543365    27.126286
5846.02    193.474396    28.250549
5847.27    160.323105    33.304317
5848.52    143.881683    31.931900
5849.76    166.602249    35.524895
5851.01    171.361053    41.946934
5852.26    143.497452    41.404819
5853.51    157.738663    30.351387
5854.75    163.630676    28.140038
5856.00    143.720016    34.437855
5857.25    136.326141    33.053783
5858.50    147.388947    30.331358
5859.75    147.289047    34.230251
5860.99    133.497589    40.960678
5862.24    157.225052    35.310207
5863.49    171.178223    32.248714
5864.74    154.521744    42.154770
5865.99    146.702011    55.081177
5867.23    170.537613    49.951061
5868.48    182.677017    39.733852
5869.73    155.061768    40.261215
5870.98    149.858765    34.674568
5872.23    154.884247    35.556416
5873.47    147.522018    45.247612
5874.72    135.691422    45.289505
5875.97    141.556137    37.863205
5877.22    153.181915    32.564140
5878.47    147.398621    34.463707
5879.71    135.031586    35.865616
5880.96    143.810318    31.184313
5882.21    163.997971    24.001757
5883.46    152.831024    24.971191
5884.71    149.452728    34.804428
5885.95    150.007889    53.017246
5887.20    134.734741    75.144669
5888.45    152.915543    87.427666
5889.70    167.020035    95.062843
5890.94    158.801117    93.610847
5892.19    174.082153    68.368042
5893.44    142.664703    74.410454
5894.69    113.782021    95.480141
5895.94    168.449921    76.870461
5897.18    155.466476    61.107761
5898.43    118.240387    50.373795
5899.68    131.756454    35.675484
5900.93    141.715469    31.677881
5902.18    137.466965    32.051270
5903.42    131.875031    33.412891
5904.67    137.730637    38.100647
5905.92    149.976700    38.960751
5907.17    154.761017    35.941910
5908.42    150.124756    33.154125
5909.66    152.586304    32.403164
5910.91    146.538528    31.120806
5912.16    129.496323    31.293137
5913.41    118.140884    38.036961
5914.66    112.988304    47.212326
5915.90    112.123413    45.426701
5917.15    116.808044    32.014866
5918.40    129.267395    30.546587
5919.65    131.739395    31.699745
5920.90    130.655518    31.223116
5922.14    146.493317    36.488728
5923.39    142.784958    33.763535
5924.64    126.983849    30.224937
5925.89    129.737213    34.721581
5927.13    152.277313    32.530201
5928.38    160.639114    29.161762
5929.63    150.666977    34.640480
5930.88    153.230682    48.167122
5932.13    159.869232    50.766853
5933.37    149.766953    51.612556
5934.62    131.323273    57.865685
5935.87    154.071198    40.734833
5937.12    149.269058    27.298382
5938.37    115.700424    32.246204
5939.61    138.083069    34.399635
5940.86    143.487457    32.644970
5942.11    136.363525    32.406078
5943.36    150.715073    34.243198
5944.61    138.913803    29.814009
5945.85    148.754333    29.128693
5947.10    179.250717    34.090664
5948.35    158.825226    32.914536
5949.60    142.709915    31.659512
5950.85    145.636612    35.375904
5952.09    147.988083    40.791496
5953.34    156.616699    38.626259
5954.59    154.036850    40.175915
5955.84    146.146286    43.870293
5957.09    160.596817    33.782349
5958.33    159.516006    32.040741
5959.58    145.781952    37.864285
5960.83    141.158127    37.381069
5962.08    131.473694    35.132870
5963.32    137.439529    33.213959
5964.57    155.288010    31.972023
5965.82    150.267822    30.592400
5967.07    144.776611    24.565720
5968.32    137.923645    24.714552
5969.56    129.285553    37.411606
5970.81    155.016693    41.330853
5972.06    159.180832    36.148937
5973.31    140.099686    28.651201
5974.56    161.102509    24.458462
5975.80    148.697784    33.867729
5977.05    131.325867    42.398994
5978.30    156.048370    36.727798
5979.55    149.023148    35.365231
5980.80    136.779236    32.802727
5982.04    148.037994    26.773703
5983.29    165.780792    25.602379
5984.54    177.724548    22.417480
5985.79    170.352936    25.490553
5987.04    147.939163    35.848965
5988.28    144.045273    28.025032
5989.53    154.781082    26.056004
5990.78    163.258118    34.164742
5992.03    159.753784    28.784052
5993.28    149.904755    27.013479
5994.52    138.822464    29.209251
5995.77    132.057861    27.284849
5997.02    136.198639    25.098215
5998.27    140.048233    25.862970
5999.51    143.970062    28.163904
6000.76    154.860367    27.764961
6002.01    151.066498    24.162086
6003.26    138.358261    21.732975
6004.51    132.156250    23.744198
6005.75    131.752594    27.638456
6007.00    128.642014    29.682499
6008.25    133.196594    30.113081
6009.50    149.765915    31.573952
6010.75    129.952698    32.675991
6011.99    127.043655    28.727554
6013.24    156.823715    25.807878
6014.49    136.212418    37.115021
6015.74    141.545364    33.211128
6016.99    164.339813    24.310341
6018.23    143.118362    34.318199
6019.48    137.778397    27.182264
6020.73    152.415634    19.337158
6021.98    163.036789    26.074245
6023.23    158.018295    29.925346
6024.47    143.462646    33.321198
6025.72    134.267441    33.068119
6026.97    138.076813    28.006355
6028.22    142.520508    33.286922
6029.47    145.050446    37.472530
6030.71    147.123322    33.746960
6031.96    146.057755    31.255777
6033.21    132.426651    31.045115
6034.46    131.637299    30.695469
6035.71    146.545410    28.327328
6036.95    121.209969    25.077602
6038.20    109.612877    23.711494
6039.45    126.544655    25.323460
6040.70    132.540405    28.351402
6041.94    146.632401    29.934380
6043.19    144.502029    29.841568
6044.44    125.072884    27.209091
6045.69    142.447586    21.614563
6046.94    152.228256    27.330744
6048.18    139.356415    33.711418
6049.43    131.612595    25.798046
6050.68    139.664658    28.151672
6051.93    145.574524    27.589428
6053.18    145.163803    17.803280
6054.42    153.267090    17.798079
6055.67    143.554840    20.556664
6056.92    131.174500    22.678328
6058.17    143.496826    25.672792
6059.42    162.371185    27.410328
6060.66    153.308594    25.553320
6061.91    133.511002    22.909483
6063.16    146.133514    24.870602
6064.41    152.111374    29.150280
6065.66    147.657242    28.989111
6066.90    142.356384    25.037355
6068.15    130.024902    26.847305
6069.40    128.479172    24.325748
6070.65    136.216385    18.130573
6071.90    139.440002    18.871040
6073.14    144.261902    27.222515
6074.39    153.306793    28.734360
6075.64    152.131012    22.857925
6076.89    134.300797    23.611757
6078.13    165.170303    17.823772
6079.38    189.876968    13.053606
6080.63    152.314453    19.399769
6081.88    127.165733    24.866032
6083.13    120.936020    29.648298
6084.37    124.127876    29.008337
6085.62    135.693298    19.348251
6086.87    150.494949    18.811026
6088.12    154.004822    23.640162
6089.37    142.693878    26.046703
6090.61    130.829895    27.413267
6091.86    126.120415    24.512148
6093.11    136.886673    20.083939
6094.36    157.562515    18.940779
6095.61    160.482590    21.069490
6096.85    153.248596    28.444340
6098.10    152.818176    29.984432
6099.35    159.152496    17.456013
6100.60    144.699341    20.247677
6101.85    139.409241    27.210085
6103.09    148.936661    28.061037
6104.34    132.238831    35.703026
6105.59    145.564667    29.349117
6106.84    155.125565    18.823679
6108.09    119.754730    23.203020
6109.33    117.302025    28.630617
6110.58    134.666122    27.407070
6111.83    146.187622    25.177626
6113.08    146.714630    28.785210
6114.32    128.461212    25.790833
6115.57    121.126610    20.348661
6116.82    136.384720    17.931526
6118.07    145.633881    15.639260
6119.32    148.141006    19.335667
6120.56    145.762039    25.252083
6121.81    137.926895    26.962914
6123.06    129.096146    26.496954
6124.31    140.962418    22.000786
6125.56    150.679825    20.705770
6126.80    131.418610    27.590130
6128.05    141.432465    23.674809
6129.30    150.664017    19.726484
6130.55    139.569427    22.012709
6131.80    139.988678    19.546522
6133.04    136.388977    20.226425
6134.29    139.635895    26.394730
6135.54    153.780029    31.934605
6136.79    148.043594    29.419237
6138.04    137.785477    23.484589
6139.28    134.877045    19.384420
6140.53    135.177322    19.559460
6141.78    131.456451    24.882156
6143.03    124.570526    33.137741
6144.28    127.730270    32.795597
6145.52    139.675201    18.178568
6146.77    109.138412    17.377125
6148.02    95.009674    23.879234
6149.27    125.904823    22.838367
6150.51    136.393463    17.126350
6151.76    139.014191    16.780680
6153.01    135.106018    23.554386
6154.26    121.593948    29.029583
6155.51    117.451492    23.814026
6156.75    126.662567    23.091061
6158.00    129.362946    25.975979
6159.25    120.157318    22.450512
6160.50    141.445816    21.669983
6161.75    154.667618    24.872686
6162.99    135.228027    25.583599
6164.24    110.448692    19.337725
6165.49    113.061569    16.078417
6166.74    134.207001    21.251047
6167.99    144.820358    30.425030
6169.23    128.639923    35.461617
6170.48    110.589104    41.412804
6171.73    114.948044    41.500343
6172.98    132.865295    32.158798
6174.23    129.872192    25.023514
6175.47    134.329117    20.111618
6176.72    136.955124    21.442657
6177.97    128.267334    27.043392
6179.22    152.892548    20.678106
6180.47    162.669479    18.768173
6181.71    141.017319    21.999538
6182.96    124.241409    17.746552
6184.21    133.281174    15.356710
6185.46    135.451187    20.513765
6186.70    125.506790    24.822920
6187.95    129.326706    19.502392
6189.20    127.911011    22.143021
6190.45    126.715073    25.054659
6191.70    133.637131    22.994541
6192.94    141.444901    24.414787
6194.19    145.231995    19.750040
6195.44    146.263428    17.733969
6196.69    140.731125    20.969324
6197.94    123.341408    15.518970
6199.18    121.878372    19.801006
6200.43    125.414101    29.020441
6201.68    127.434311    28.182289
6202.93    154.156418    21.520664
6204.18    140.146591    25.007469
6205.42    106.808411    31.724339
6206.67    114.254738    26.755724
6207.92    136.192291    17.540466
6209.17    127.652153    21.933113
6210.42    116.857162    29.006681
6211.66    139.555832    21.766838
6212.91    134.116150    19.809355
6214.16    130.684937    19.030003
6215.41    130.586304    18.388527
6216.66    109.600861    22.556217
6217.90    116.113220    23.040392
6219.15    135.842438    24.135029
6220.40    138.752121    25.920807
6221.65    121.435280    22.731300
6222.90    107.404419    20.288240
6224.14    91.587738    22.985647
6225.39    87.823425    25.929043
6226.64    115.741562    22.480024
6227.89    119.502403    22.826033
6229.13    118.488983    21.319748
6230.38    132.094482    16.847401
6231.63    139.862457    19.052967
6232.88    149.650726    23.406197
6234.13    141.577240    38.071972
6235.37    123.744835    52.036026
6236.62    135.023041    39.629135
6237.87    137.289749    32.439831
6239.12    131.632141    30.506086
6240.37    130.901077    25.875492
6241.61    122.271385    27.134491
6242.86    94.981834    29.053938
6244.11    105.421173    21.435452
6245.36    139.876801    13.105427
6246.61    103.478592    24.378931
6247.85    108.127441    25.661011
6249.10    133.748550    19.429146
6250.35    123.350113    20.110167
6251.60    110.162346    23.350037
6252.85    112.505135    24.154020
6254.09    117.593895    22.031628
6255.34    117.102600    22.153118
6256.59    122.032608    29.695633
6257.84    116.441956    35.302681
6259.09    112.549171    35.658249
6260.33    112.585945    32.851463
6261.58    97.245918    28.479914
6262.83    112.606903    23.790771
6264.08    135.050888    26.472643
6265.32    133.789139    33.055157
6266.57    126.738823    27.972775
6267.82    104.165680    23.260170
6269.07    97.692581    23.408861
6270.32    116.880913    23.934675
6271.56    118.697937    21.527737
6272.81    104.837769    20.941671
6274.06    89.790092    22.982981
6275.31    91.154991    23.903749
6276.56    112.655907    21.875908
6277.80    113.841049    24.834106
6279.05    103.544022    24.495087
6280.30    106.022194    19.877079
6281.55    116.324615    22.451618
6282.80    103.600922    22.685072
6284.04    91.338966    22.448120
6285.29    88.917229    32.231617
6286.54    76.888054    49.243324
6287.79    81.039467    40.430023
6289.04    81.774017    31.695015
6290.28    83.551277    35.074436
6291.53    108.465614    30.770161
6292.78    110.612076    27.780254
6294.03    110.009216    25.951355
6295.28    121.255760    28.495686
6296.52    118.128479    69.052948
6297.77    81.032173    200.847290
6299.02    96.901421    320.316406
6300.27    150.714813    335.403961
6301.51    152.128006    255.089798
6302.76    109.972137    159.314423
6304.01    97.524734    77.757591
6305.26    110.044128    43.310135
6306.51    108.045441    52.968910
6307.75    108.341827    38.431461
6309.00    104.380989    25.939600
6310.25    96.389709    22.374577
6311.50    97.387924    15.771370
6312.75    113.343307    12.810933
6313.99    113.999092    21.090397
6315.24    112.513565    23.682951
6316.49    119.197868    16.713055
6317.74    112.786591    20.442806
6318.99    100.185112    26.827330
6320.23    107.686127    26.916767
6321.48    129.717804    20.900082
6322.73    131.061752    16.159819
6323.98    110.441742    17.521645
6325.23    106.015678    16.876802
6326.47    119.753639    20.349682
6327.72    125.737976    33.451859
6328.97    129.151764    33.627460
6330.22    129.651474    30.881580
6331.47    114.584213    31.010183
6332.71    93.951286    27.931839
6333.96    104.879417    19.442886
6335.21    110.989594    18.620548
6336.46    106.179977    16.891464
6337.70    107.681076    10.840542
6338.95    115.269859    15.364167
6340.20    106.031677    21.970976
6341.45    105.237915    18.649900
6342.70    117.399246    12.956676
6343.94    120.302376    18.396713
6345.19    129.178452    20.672354
6346.44    119.320930    22.279072
6347.69    100.598503    22.341137
6348.94    99.941101    18.055008
6350.18    103.468231    16.753422
6351.43    103.338196    18.156544
6352.68    99.157333    21.591522
6353.93    103.357552    26.430258
6355.18    121.373589    30.468273
6356.42    108.524109    31.435034
6357.67    98.270370    27.229620
6358.92    112.168839    22.607302
6360.17    117.245811    31.687479
6361.42    93.394516    65.575836
6362.66    90.724266    92.781761
6363.91    96.207664    105.613388
6365.16    80.784752    102.503242
6366.41    82.856888    64.776283
6367.66    94.911980    40.404198
6368.90    96.111122    30.525532
6370.15    91.241241    22.361490
6371.40    104.674950    21.244659
6372.65    127.076302    17.837299
6373.89    117.862267    18.274715
6375.14    94.078560    19.505997
6376.39    97.824425    14.078783
6377.64    111.104118    10.697866
6378.89    110.639755    14.112103
6380.13    106.615707    17.934711
6381.38    106.513832    19.332300
6382.63    98.995567    22.740330
6383.88    97.671906    22.006592
6385.13    107.917587    20.391048
6386.37    117.018005    19.752533
6387.62    110.244354    20.915070
6388.87    95.899162    27.432833
6390.12    102.460175    24.277809
6391.37    103.224533    21.345551
6392.61    96.143547    22.483173
6393.86    117.038933    14.019809
6395.11    116.663239    11.508628
6396.36    120.029617    12.269299
6397.61    124.294441    13.835646
6398.85    107.815735    18.049980
6400.10    98.992661    20.871088
6401.35    95.331429    20.547409
6402.60    85.044395    25.577469
6403.85    83.229919    27.798843
6405.09    107.009399    14.846352
6406.34    115.407600    15.157018
6407.59    110.127472    22.020416
6408.84    109.005943    21.536861
6410.09    114.187851    15.781036
6411.33    114.442619    17.200474
6412.58    119.788246    20.951250
6413.83    114.380630    22.019278
6415.08    98.500145    17.008461
6416.32    91.051781    10.989582
6417.57    91.818092    16.820183
6418.82    96.895638    16.116325
6420.07    104.631180    17.339725
6421.32    107.472656    21.632753
6422.56    102.003334    13.628868
6423.81    109.462517    12.043687
6425.06    118.990211    10.290377
6426.31    106.877441    14.404196
6427.56    81.471558    24.327242
6428.80    82.969238    20.067478
6430.05    105.227798    16.457617
6431.30    111.248657    15.478059
6432.55    98.050133    16.970541
6433.80    95.302155    20.008705
6435.04    111.567078    17.023487
6436.29    112.312691    13.776325
6437.54    111.724213    15.798885
6438.79    112.301056    17.726084
6440.04    93.493439    14.053421
6441.28    76.896225    12.815651
6442.53    106.845055     8.253597
6443.78    123.034538    11.847362
6445.03    103.400597    19.076591
6446.28    105.427650    12.383625
6447.52    113.694954    10.037518
6448.77    108.622070     9.609666
6450.02    98.604843    14.085546
6451.27    94.482719    21.766459
6452.51    93.706490    20.530352
6453.76    99.826088    13.897255
6455.01    104.047447    15.494091
6456.26    105.899170    19.923176
6457.51    105.396439    17.310087
6458.75    100.872894    13.098547
6460.00    107.959991    15.168597
6461.25    111.973862    15.921069
6462.50    98.747139    22.138124
6463.75    87.413467    29.806887
6464.99    101.057365    21.506298
6466.24    97.408852    24.482075
6467.49    92.704781    23.964186
6468.74    99.288246    18.694153
6469.99    106.536659    20.659273
6471.23    104.049400    25.026600
6472.48    93.626801    20.265852
6473.73    99.900986    16.384134
6474.98    104.579857    17.914394
6476.23    92.538597    18.817944
6477.47    92.033875    16.162405
6478.72    103.664810    16.477716
6479.97    89.879677    17.316593
6481.22    90.592163    13.943694
6482.47    121.686760    11.244382
6483.71    123.768463    17.436386
6484.96    112.499077    22.496838
6486.21    118.873894    16.932413
6487.46    110.924713    12.595746
6488.70    91.140862    15.430126
6489.95    106.293915    15.068983
6491.20    117.894531    12.680949
6492.45    112.487076    11.001908
6493.70    103.261688    14.788143
6494.94    97.440582    21.234371
6496.19    88.884811    25.051985
6497.44    81.208107    31.431303
6498.69    93.153503    36.766617
6499.94    99.102196    31.094080
6501.18    96.590118    20.552248
6502.43    106.968941    18.031996
6503.68    117.078354    19.106693
6504.93    107.299484    16.679832
6506.18    94.568314    17.044117
6507.42    96.969879    19.598660
6508.67    105.409035    18.685135
6509.92    103.083626    15.354317
6511.17    103.540512    12.527782
6512.42    89.120560    16.608139
6513.66    98.310913    15.689247
6514.91    125.453926     9.460669
6516.16    114.099670    10.995877
6517.41    98.664581    10.993089
6518.66    84.011002    19.204147
6519.90    93.526230    20.209684
6521.15    95.760872    15.805903
6522.40    74.961426    20.477743
6523.65    96.271194    22.447895
6524.89    102.722679    15.981121
6526.14    103.317650    13.837752
6527.39    93.859833    15.082973
6528.64    82.594421    15.374021
6529.89    100.533173    17.977840
6531.13    110.356613    17.590492
6532.38    103.057671    22.110113
6533.63    87.584183    26.850510
6534.88    83.194809    26.400925
6536.13    93.878525    21.259937
6537.37    100.819321    13.508727
6538.62    113.159554    13.707089
6539.87    115.277779    17.327541
6541.12    107.118500    20.184301
6542.37    94.292061    22.486412
6543.61    84.043434    24.009563
6544.86    96.712891    23.494825
6546.11    92.072815    19.571949
6547.36    96.498085    13.107557
6548.61    110.061089    11.773467
6549.85    109.674347    15.135540
6551.10    107.202888    16.582668
6552.35    103.249146    29.888741
6553.60    105.275406    35.232544
6554.85    107.595802    28.881847
6556.09    112.914841    20.772511
6557.34    108.172234    18.122797
6558.59    79.492577    21.693867
6559.84    113.884575    23.231571
6561.08    99.001808    27.545149
6562.33    87.740623    30.645653
6563.58    112.727951    27.825668
6564.83    102.215477    22.626642
6566.08    98.193657    19.060608
6567.32    96.458977    20.983456
6568.57    100.258453    23.123905
6569.82    91.720055    25.150621
6571.07    79.766525    23.582432
6572.32    96.292221    15.684633
6573.56    111.489502    14.516115
6574.81    83.353775    20.114710
6576.06    79.441368    28.437624
6577.31    105.358643    30.524349
6578.56    116.325821    25.850185
6579.80    107.382439    22.903444
6581.05    95.838898    21.340635
6582.30    83.750679    18.476080
6583.55    84.056229    18.700418
6584.80    81.511078    17.812475
6586.04    78.790970    14.402232
6587.29    97.477081    15.202968
6588.54    126.111443    20.154762
6589.79    185.230774    26.816849
6591.04    218.461029    27.799406
6592.28    201.965988    27.012096
6593.53    165.725891    24.323174
6594.78    136.243652    17.560709
6596.03    115.885773    16.134052
6597.28    112.870605    13.022015
6598.52    104.491463    10.732277
6599.77    95.772598    15.643785
6601.02    97.336716    16.109774
6602.27    95.443878     8.605383
6603.51    83.117554    13.704134
6604.76    87.953499    20.031666
6606.01    80.303375    15.528189
6607.26    92.453629    16.271269
6608.51    110.265297    18.191410
6609.75    114.790627    13.366222
6611.00    129.077011    14.067402
6612.25    116.536118    16.459085
6613.50    107.724808    20.447672
6614.75    124.736961    19.641773
6615.99    106.452896    17.167311
6617.24    76.670677    12.871389
6618.49    96.865410     8.168068
6619.74    94.706635    13.823361
6620.99    83.031792    11.834737
6622.23    85.557526    10.317915
6623.48    87.223877     8.732951
6624.73    77.023888    14.084226
6625.98    71.523590    22.400335
6627.23    76.977455    18.949942
6628.47    75.465149    21.046247
6629.72    98.170486    16.948400
6630.97    92.891830    17.650375
6632.22    86.291840    18.286077
6633.47    91.234650    19.866014
6634.71    87.884277    21.997959
6635.96    99.981567    11.015351
6637.21    99.109688    10.898534
6638.46    92.609810     8.523397
6639.70    84.680267    10.418484
6640.95    81.984024    13.805609
6642.20    82.603470    12.441589
6643.45    82.572906    12.227003
6644.70    86.131393    14.940805
6645.94    75.962830    15.224432
6647.19    81.176086    13.728250
6648.44    91.654572    11.872265
6649.69    91.649818    13.376745
6650.94    86.902092    14.523306
6652.18    87.499695     9.167756
6653.43    92.853546     5.923643
6654.68    93.157593    11.381136
6655.93    84.531418    10.029374
6657.18    82.090683     9.886497
6658.42    87.988914    10.584563
6659.67    86.908676    10.879761
6660.92    72.588257    18.395037
6662.17    66.783463    25.001072
6663.42    89.952660    19.190617
6664.66    82.944557    15.546726
6665.91    78.556190    13.193174
6667.16    89.016640    11.852996
6668.41    86.638428    16.258589
6669.66    74.878586    21.195478
6670.90    81.379196    15.771341
6672.15    94.627182     8.597368
6673.40    75.020630    18.997042
6674.65    73.051903    16.133488
6675.89    82.377090     8.116391
6677.14    80.871887     8.294144
6678.39    77.000717     9.310868
6679.64    71.360229    13.700294
6680.89    65.912903    20.174561
6682.13    72.106888    11.038534
6683.38    71.411263    14.975256
6684.63    79.168510    13.779836
6685.88    84.848076    13.288763
6687.13    69.485100    17.618912
6688.37    63.111988    11.119299
6689.62    84.153000    10.019692
6690.87    76.138618    11.752641
6692.12    77.255730    13.030754
6693.37    81.657310    11.963912
6694.61    97.471916     9.904725
6695.86    98.646294    11.287480
6697.11    80.421974    14.484952
6698.36    87.792465    12.401975
6699.61    95.171440     8.965244
6700.85    75.506912    13.824032
6702.10    73.258102     9.419927
6703.35    76.287109     9.888194
6704.60    90.813499    16.043116
6705.85    95.581177    15.793653
6707.09    77.742935    12.917008
6708.34    71.036064    13.889825
6709.59    64.844131    11.055693
6710.84    79.624695    11.031810
6712.08    85.489632     9.933797
6713.33    91.313057    11.782109
6714.58    111.264435     9.595962
6715.83    110.295898    10.057460
6717.08    81.580696    17.059225
6718.32    74.671562    14.160063
6719.57    85.887482     8.986105
6720.82    88.454956    13.866673
6722.07    95.978401     8.603672
6723.32    98.253151     8.225154
6724.56    91.724121    10.560086
6725.81    86.193031     9.821462
6727.06    74.421295    12.210530
6728.31    70.079941    14.953185
6729.56    93.979874    11.917885
6730.80    67.559990    10.208722
6732.05    62.020187     8.502265
6733.30    63.038788    13.563957
6734.55    79.344948    13.488662
6735.80    83.781738    13.052821
6737.04    81.397942    14.546393
6738.29    89.669464     9.920039
6739.54    74.215408     6.821783
6740.79    73.254295     8.756724
6742.04    64.550102    17.553612
6743.28    99.385788    13.066849
6744.53    92.877190    10.653977
6745.78    82.701752    17.274849
6747.03    91.615486    13.782142
6748.27    87.949371     7.143100
6749.52    80.362297    14.027350
6750.77    67.827560    14.946942
6752.02    74.593269    13.197803
6753.27    73.604370    10.064661
6754.51    64.599205    11.925216
6755.76    70.674088     9.062905
6757.01    86.505028    10.399295
6758.26    87.246361    12.353874
6759.51    76.318993    12.331768
6760.75    67.788918    16.991348
6762.00    64.980469    12.836163
6763.25    89.377991    13.009851
6764.50    77.895866    11.256851
6765.75    65.127441    11.133386
6766.99    74.614578     9.477014
6768.24    78.489517     9.964714
6769.49    79.248680     7.805880
6770.74    77.546852     8.033271
6771.99    64.774437    13.859826
6773.23    62.180508    10.149155
6774.48    55.623726    15.035527
6775.73    82.446014     6.956515
6776.98    79.373276     7.092696
6778.23    74.635712     7.858996
6779.47    72.288193     5.976738
6780.72    70.665245     6.952281
6781.97    78.484985     7.781547
6783.22    77.028465     5.304030
6784.47    65.977669     8.412475
6785.71    75.178764    19.117506
6786.96    71.764465    14.616322
6788.21    62.671528    10.806522
6789.46    57.820992    13.585917
6790.70    72.376984    11.570834
6791.95    83.471443     6.216500
6793.20    76.437256     5.417964
6794.45    63.642815     9.958838
6795.70    61.881245    12.866708
6796.94    74.991447     9.731599
6798.19    78.017723     8.996479
6799.44    81.686142     8.693878
6800.69    68.286064    13.496653
6801.94    75.558807    11.542963
6803.18    81.296204     8.733441
6804.43    76.144440     9.971181
6805.68    72.801460    11.452952
6806.93    72.025742    10.174794
6808.18    71.699303     9.403996
6809.42    73.959114    10.723985
6810.67    80.969391     7.000532
6811.92    73.534744    10.773088
6813.17    88.494263     9.409555
6814.42    70.780006     9.978151
6815.66    60.582481    12.927765
6816.91    75.580177    11.088142
6818.16    76.669197     8.227918
6819.41    67.376930     7.717147
6820.66    65.928940     8.813054
6821.90    65.126968    10.726985
6823.15    76.213402     6.939435
6824.40    69.799370    11.410286
6825.65    57.845779    23.808577
6826.89    60.306767    34.235176
6828.14    69.582489    31.982689
6829.39    65.065041    28.862707
6830.64    71.075378    22.182550
6831.89    72.089043    27.098169
6833.13    54.873379    33.587261
6834.38    57.081367    25.300125
6835.63    67.936012    34.061905
6836.88    83.001335    12.953418
6838.13    67.893364    19.403454
6839.37    57.864540    15.334412
6840.62    69.844116    14.144867
6841.87    62.180752    15.438297
6843.12    75.890968    14.033185
6844.37    88.756348    11.792734
6845.61    71.387543     8.621218
6846.86    66.791771     5.040481
6848.11    69.136940     9.255978
6849.36    56.754372    18.850943
6850.61    53.916962     9.033960
6851.85    75.358948    11.756292
6853.10    77.950630     8.278228
6854.35    75.269852     4.640574
6855.60    68.519760     8.019233
6856.85    70.023109    11.678629
6858.09    68.389328    11.737925
6859.34    49.614426    13.342692
6860.59    44.697636    22.883854
6861.84    66.303665    34.541424
6863.08    74.555489    38.479080
6864.33    58.830833    43.011856
6865.58    42.547478    38.094822
6866.83    43.818691    23.158430
6868.08    41.858917    17.044113
6869.32    59.922768    11.095703
6870.57    62.208977     8.787292
6871.82    54.228058    11.018675
6873.07    48.477203    10.025872
6874.32    47.286297     7.327673
6875.56    58.221584     7.204164
6876.81    47.393929     7.980353
6878.06    43.119091     6.958214
6879.31    52.297230     7.813095
6880.56    64.372818    11.941349
6881.80    59.999268     8.176147
6883.05    47.994438     5.930876
6884.30    47.579494     5.854393
6885.55    51.844017     7.103082
6886.80    54.410660    11.225617
6888.04    53.658863    15.161180
6889.29    49.133820    15.893971
6890.54    44.370895    16.451458
6891.79    42.079956    16.463444
6893.04    58.013962     7.982161
6894.28    48.703056     7.915103
6895.53    51.507282     6.539241
6896.78    55.749931     5.406338
6898.03    50.963070    15.306825
6899.27    57.439228    15.477028
6900.52    61.666885    10.882532
6901.77    55.612045    13.167854
6903.02    51.598225    16.029510
6904.27    50.415737    14.626120
6905.51    56.269798     8.522635
6906.76    60.910118     9.023064
6908.01    56.054890     8.957891
6909.26    58.509354    11.924909
6910.51    60.960381    10.623043
6911.75    60.659424    16.497326
6913.00    62.776661    17.102322
6914.25    56.427498    20.565081
6915.50    54.779022    18.071075
6916.75    62.766163    10.388905
6917.99    58.722958    13.504309
6919.24    54.418289    16.006025
6920.49    68.745430    15.100326
6921.74    70.658440    18.191805
6922.99    60.330597    20.950785
6924.23    55.850452    20.334049
6925.48    49.459652    16.430983
6926.73    66.116508     9.806013
6927.98    52.849060    11.410013
6929.23    47.547504    12.400476
6930.47    65.928627    10.589033
6931.72    69.509209     8.604965
6932.97    64.642113     7.761052
6934.22    59.441711     9.502107
6935.46    58.047306     4.654728
6936.71    70.152901     6.114143
6937.96    64.509163     8.956142
6939.21    59.404751     8.075196
6940.46    58.190590     9.812288
6941.70    63.629292    14.836094
6942.95    59.074203    11.147018
6944.20    60.341908    10.221887
6945.45    56.759377    14.455657
6946.70    54.270290    15.159386
6947.94    60.145874    18.838539
6949.19    50.078239    26.068346
6950.44    64.787865    24.053425
6951.69    75.002907    11.936334
6952.94    66.230698     9.950096
6954.18    54.505867     9.887227
6955.43    58.603607    10.728914
6956.68    57.236732     5.482187
6957.93    44.921860    10.103806
6959.18    51.843647    10.377803
6960.42    56.486721     8.473265
6961.67    53.655350    11.298427
6962.92    61.097973     8.317507
6964.17    51.675350    10.675953
6965.42    58.357147     7.096488
6966.66    57.203041    14.728391
6967.91    49.078999    18.345043
6969.16    43.117531    12.861757
6970.41    46.627686    12.733534
6971.66    53.913441    10.773039
6972.90    62.151207     8.112074
6974.15    77.310204    10.932628
6975.40    69.402534    13.240980
6976.65    40.872349    15.470523
6977.89    45.834846    20.332525
6979.14    54.460430    21.486895
6980.39    45.002258    24.997513
6981.64    61.660744    11.061062
6982.89    46.093136     8.707440
6984.13    44.602753     8.450169
6985.38    41.995022    13.492713
6986.63    38.750683    12.836019
6987.88    43.578392    12.405102
6989.13    46.980404    12.151063
6990.37    46.341160     5.857350
6991.62    46.968960     6.257749
6992.87    54.739956     7.027513
6994.12    58.000317     7.000690
6995.37    56.216442     7.066331
6996.61    54.413670     6.004202
6997.86    52.148037     7.757363
6999.11    53.132458    11.890658
7000.36    50.153141     9.175312
7001.61    48.308586    10.912576
7002.85    47.794735    14.731302
7004.10    47.011925     9.888355
7005.35    49.273094     9.084059
7006.60    37.998020    11.311852
7007.85    31.893318    14.043009
7009.09    42.036636     9.356564
7010.34    43.903034    10.539890
7011.59    53.440590    10.560826
7012.84    42.799263    14.541904
7014.08    31.487556    13.669003
7015.33    44.598526     5.855117
7016.58    57.311150     4.780818
7017.83    54.643250     8.461616
7019.08    49.842304     9.203449
7020.32    49.980640    10.995844
7021.57    45.904072     8.231083
7022.82    53.051723     7.387712
7024.07    59.393147     4.235046
7025.32    64.618652     6.992866
7026.56    57.383362     9.052744
7027.81    50.330299     7.848621
7029.06    51.262867    10.014586
7030.31    49.661034    12.167772
7031.56    57.994690    10.717835
7032.80    60.036427     8.009539
7034.05    48.976982     6.964750
7035.30    61.293934     7.842053
7036.55    61.401291     7.611590
7037.80    54.738014     5.545420
7039.04    57.069138     5.453934
7040.29    55.933270     5.632780
7041.54    50.139313     5.385782
7042.79    49.785759     8.591728
7044.04    50.293278     9.927113
7045.28    58.657352     6.286507
7046.53    55.524044     4.965830
7047.78    40.840527    14.113385
7049.03    50.105217    13.439852
7050.27    53.767006     7.280757
7051.52    46.985001     8.131811
7052.77    49.403896     7.888955
7054.02    49.020176     5.407347
7055.27    48.884106    11.275726
7056.51    46.925407    11.221601
7057.76    52.320950     7.933206
7059.01    60.156784    11.292732
7060.26    58.739368     9.517149
7061.51    57.194153     5.659787
7062.75    54.636215     9.584291
7064.00    51.585632    12.638190
7065.25    56.212738     8.697659
