#Wavelength     Flux    Sky Spectrum 
#[Angstrom]   [Counts]     [Counts]
4609.56    31.342373    29.347982
4610.76    18.445877    35.211777
4611.96    22.891966    32.157814
4613.16    19.197428    37.530087
4614.36    34.062557    35.776112
4615.56    35.914364    29.697571
4616.76    27.391695    30.431139
4617.96    31.000109    34.984318
4619.16    25.492060    28.541323
4620.36    23.521759    33.823925
4621.56    23.187243    42.685734
4622.75    19.357113    42.718365
4623.95    17.850689    39.527515
4625.15    18.252588    34.968578
4626.35    -0.352859    42.758511
4627.55     2.301312    44.310699
4628.75    33.990711    32.734528
4629.95    22.350143    38.836529
4631.15    14.410379    39.048000
4632.35    18.239946    36.143070
4633.55    12.394402    41.309223
4634.75     5.017157    45.992477
4635.95    31.925579    33.336559
4637.15    33.969593    32.741821
4638.35    28.471210    33.428814
4639.55    34.268806    33.904911
4640.75    31.045141    47.650261
4641.95    34.660740    42.143951
4643.15    36.307899    31.039845
4644.35    36.635548    27.719069
4645.55    34.935036    32.023327
4646.75    26.341955    36.996712
4647.95    28.171894    33.849613
4649.15    22.844128    39.097591
4650.35    27.958473    39.144848
4651.55    39.077194    29.796034
4652.75    18.406008    35.588459
4653.95    24.361483    33.280079
4655.15    28.525244    37.759502
4656.35    23.023256    40.699120
4657.54    27.992807    31.169069
4658.74    33.731937    29.597965
4659.94    20.932281    33.336418
4661.14    23.309059    33.059410
4662.34    26.400419    37.200207
4663.54    13.448730    43.722202
4664.74    18.288933    35.310982
4665.94    18.822594    42.003067
4667.14    22.827124    43.265572
4668.34    29.782764    33.660133
4669.54    29.689552    32.829075
4670.74    28.462820    41.134460
4671.94    33.987839    31.689577
4673.14    15.227998    37.228672
4674.34    17.477468    41.727383
4675.54    51.174961    27.741869
4676.74    39.260582    29.273121
4677.94    21.647377    36.499550
4679.14    19.043867    37.894569
4680.34    18.534563    32.064114
4681.54    10.525940    34.147339
4682.74     8.474856    47.950748
4683.94    25.800934    36.379623
4685.14    47.085316    40.159634
4686.34    47.092461    41.679153
4687.54    32.731575    29.873373
4688.74    28.084229    36.767136
4689.94    24.544077    47.570164
4691.14    37.845322    41.164482
4692.33    46.024605    28.331169
4693.53    33.268036    31.151983
4694.73    19.852871    45.251106
4695.93    25.343523    42.879589
4697.13    29.359383    41.804035
4698.33    20.634804    40.745922
4699.53    19.884048    41.170029
4700.73    33.833122    47.587479
4701.93    32.680317    47.303432
4703.13    30.120598    33.162964
4704.33    39.630192    37.162846
4705.53    46.793835    40.825611
4706.73    40.619099    30.252892
4707.93    34.207253    35.537518
4709.13    33.017502    39.971233
4710.33    32.952110    32.623909
4711.53    39.575363    32.722553
4712.73    44.549416    39.301987
4713.93    38.975323    33.859795
4715.13    43.350887    31.004629
4716.33    41.330666    31.812254
4717.53    33.797836    31.450800
4718.73    30.863493    33.733505
4719.93    25.398270    41.913383
4721.13    13.095498    44.735054
4722.33    38.041664    32.950775
4723.53    40.672806    31.463539
4724.73    28.544943    35.701374
4725.93    31.438330    36.873390
4727.12    33.851612    39.137375
4728.32    42.303520    27.073601
4729.52    31.147314    33.550659
4730.72    21.940933    38.996159
4731.92    22.193180    32.443748
4733.12    11.819864    38.293804
4734.32     4.778360    53.522682
4735.52    35.093193    32.708981
4736.72    37.222088    26.110521
4737.92    32.957909    37.061047
4739.12    54.965046    36.433250
4740.32    54.514359    34.901024
4741.52    36.820412    40.620872
4742.72    30.805815    42.206760
4743.92    48.689415    33.268860
4745.12    48.817432    30.728212
4746.32    23.877752    39.008312
4747.52    41.961033    32.272385
4748.72    27.748943    39.642181
4749.92    28.339943    47.321621
4751.12    37.873043    48.451717
4752.32    34.013332    44.139305
4753.52    44.946602    33.141476
4754.72    33.698830    37.510452
4755.92    25.890747    38.731644
4757.12    26.681351    35.681236
4758.32    39.013260    32.933239
4759.52    55.087280    32.350311
4760.71    39.871368    40.875862
4761.91    25.350080    44.711319
4763.11    22.351883    41.227470
4764.31    33.712837    41.340466
4765.51    45.561295    43.544609
4766.71    39.164295    38.068321
4767.91    37.179161    39.397797
4769.11    41.892998    40.636822
4770.31    41.488930    45.613354
4771.51    41.261433    44.127670
4772.71    44.709217    32.514992
4773.91    37.353359    36.246967
4775.11    39.353069    40.856174
4776.31    27.139763    49.012775
4777.51    22.474764    47.522026
4778.71    39.339054    33.127071
4779.91    49.997780    27.999340
4781.11    54.143379    38.371983
4782.31    29.116552    54.051189
4783.51    37.115158    50.000637
4784.71    56.325817    33.104549
4785.91    39.555363    32.216106
4787.11    34.189117    46.306492
4788.31    14.914000    43.893509
4789.51    20.285242    42.064899
4790.71    32.875931    45.111107
4791.91    28.772627    42.653736
4793.11    27.043331    40.146938
4794.31    31.709387    50.213165
4795.50    37.311684    44.931881
4796.70    32.806004    35.789982
4797.90    34.587578    35.875988
4799.10    46.777809    39.394100
4800.30    44.985481    39.211380
4801.50    47.666443    35.357910
4802.70    34.179592    36.919811
4803.90    40.005096    36.750790
4805.10    52.537922    31.904627
4806.30    29.993313    32.233662
4807.50    26.282022    38.364513
4808.70    40.808037    38.665859
4809.90    43.680168    38.547264
4811.10    19.800858    45.912178
4812.30     8.811786    51.887310
4813.50    43.858009    47.948719
4814.70    45.510929    53.803356
4815.90    29.178417    46.548923
4817.10    35.695709    39.595661
4818.30    40.989403    42.932953
4819.50    28.472290    42.787090
4820.70    48.239922    41.231129
4821.90    30.397068    51.125587
4823.10    13.741108    47.912651
4824.30    37.338753    33.804760
4825.50    66.402710    29.060318
4826.70    50.042343    37.547455
4827.90    14.386368    54.135101
4829.10    29.992477    51.574352
4830.29    50.983002    42.096237
4831.49    46.365639    43.659275
4832.69    42.669037    46.651543
4833.89    38.488461    37.730408
4835.09    34.685318    40.150364
4836.29    25.318516    51.170666
4837.49    31.998386    49.290375
4838.69    47.740963    37.697559
4839.89    35.405991    43.618866
4841.09    26.828800    59.859604
4842.29    52.210167    45.398605
4843.49    54.430695    31.376623
4844.69    31.046984    39.246849
4845.89    26.763613    47.336281
4847.09    26.663439    45.784843
4848.29    41.618221    40.860920
4849.49    32.404842    49.670242
4850.69    27.797457    50.617199
4851.89    47.544331    36.089989
4853.09    49.080246    34.905567
4854.29    47.419010    37.711643
4855.49    45.490562    37.350536
4856.69    44.949715    37.831280
4857.89    34.734291    42.783421
4859.09    28.260357    41.121880
4860.29    58.066460    24.656645
4861.49    35.075462    34.042458
4862.69    30.174694    34.390011
4863.89    52.431911    30.243139
4865.08    51.460953    38.686340
4866.28    41.206306    35.370834
4867.48    46.729652    30.546589
4868.68    56.274101    31.039299
4869.88    53.486050    38.253826
4871.08    38.845623    44.877880
4872.28    31.144922    43.924526
4873.48    41.693928    42.689617
4874.68    32.745270    45.451389
4875.88    40.603157    40.525932
4877.08    44.146000    36.437302
4878.28    24.695589    45.237881
4879.48    41.211979    51.218765
4880.68    45.824242    43.596920
4881.88    40.948803    40.542515
4883.08    43.104053    45.071915
4884.28    35.533039    48.441105
4885.48    13.038603    48.078861
4886.68    35.302109    42.932201
4887.88    54.136963    35.698227
4889.08    46.224644    38.548985
4890.28    30.523886    51.939171
4891.48    35.074863    60.019772
4892.68    60.226532    52.969032
4893.88    43.310493    43.450726
4895.08    42.452824    39.588722
4896.28    53.532234    40.680397
4897.48    46.539482    43.348133
4898.68    56.628567    47.317249
4899.87    33.968918    53.228260
4901.07    29.813051    47.576221
4902.27    45.288200    48.511677
4903.47    47.428440    56.931465
4904.67    36.838776    50.073185
4905.87    23.425341    54.486710
4907.07    53.952507    44.579411
4908.27    49.807743    50.292263
4909.47    21.067860    64.884880
4910.67    54.382744    50.894073
4911.87    66.771065    52.704494
4913.07    45.790588    53.977196
4914.27    46.695385    42.475719
4915.47    56.853436    43.002113
4916.67    43.755924    54.494926
4917.87    49.262970    35.229496
4919.07    37.858994    55.800751
4920.27    46.281837    53.406357
4921.47    52.068306    42.680782
4922.67    29.631176    62.986866
4923.87    34.445293    56.028160
4925.07    45.903393    55.265087
4926.27    61.352329    53.985737
4927.47    62.708679    50.229546
4928.67    41.510075    51.245953
4929.87    27.052153    54.439960
4931.07    38.440056    61.484814
4932.27    55.872719    57.761810
4933.47    56.210419    54.278828
4934.66    47.311077    56.848892
4935.86    44.658325    53.097683
4937.06    28.454708    55.018612
4938.26    43.437290    57.086285
4939.46    60.004520    59.399155
4940.66    60.626320    55.730774
4941.86    70.998283    45.009865
4943.06    62.280506    55.125652
4944.26    72.764992    57.748966
4945.46    68.670319    48.011620
4946.66    39.539684    49.988651
4947.86    37.749054    64.961739
4949.06    63.300201    54.263088
4950.26    54.592316    49.547882
4951.46    42.474201    53.743137
4952.66    59.564926    46.226322
4953.86    71.022522    35.980980
4955.06    48.671379    58.120770
4956.26    57.097179    58.047554
4957.46    64.701286    54.199875
4958.66    49.834164    56.719444
4959.86    43.995705    49.002247
4961.06    44.651016    58.346649
4962.26    59.843403    50.035614
4963.46    71.756111    44.709160
4964.66    69.863472    48.378914
4965.86    60.034969    43.990978
4967.06    42.645859    54.889965
4968.26    41.440231    49.650261
4969.45    55.733345    52.652832
4970.65    53.732586    64.519691
4971.85    34.967155    58.035641
4973.05    59.712845    62.615696
4974.25    71.898842    63.900166
4975.45    51.708427    66.687569
4976.65    37.074535    70.879318
4977.85    48.789680    67.955261
4979.05    43.473351    74.774796
4980.25    35.225906    77.991188
4981.45    51.239014    62.027706
4982.65    64.622543    49.599525
4983.85    41.913769    67.026337
4985.05    42.909618    72.030251
4986.25    49.198730    57.778282
4987.45    53.610027    48.924133
4988.65    59.522854    55.180794
4989.85    60.724087    59.825722
4991.05    63.521854    59.634144
4992.25    48.503654    58.469429
4993.45    37.641392    64.727585
4994.65    54.996681    65.308701
4995.85    72.350578    47.149212
4997.05    56.236389    64.865433
4998.25    64.277527    72.218796
4999.45    72.170578    57.368275
5000.65    48.152630    49.695667
5001.85    54.288635    48.651730
5003.05    55.737606    51.552750
5004.24    53.790134    54.250347
5005.44    49.333897    58.932079
5006.64    42.053917    61.910957
5007.84    52.013668    52.072540
5009.04    40.217754    62.199467
5010.24    44.092155    62.349533
5011.44    56.454079    54.047558
5012.64    42.500923    64.255676
5013.84    74.999573    45.500851
5015.04    71.547043    56.155834
5016.24    53.673557    65.648933
5017.44    58.802776    46.091953
5018.64    55.508209    45.393494
5019.84    80.433716    48.183887
5021.04    79.837860    42.769886
5022.24    59.857582    47.964367
5023.44    53.231956    65.442940
5024.64    35.974606    61.720695
5025.84    37.753395    64.468056
5027.04    46.107712    63.091419
5028.24    48.792068    60.017559
5029.44    55.678867    63.317020
5030.64    64.424774    44.672375
5031.84    51.057346    61.466415
5033.04    60.452915    69.695305
5034.24    83.321289    44.755280
5035.44    56.065487    48.202579
5036.64    61.812939    62.139526
5037.84    55.500950    67.475243
5039.03    41.916500    61.104992
5040.23    53.205353    55.035744
5041.43    52.159546    60.054695
5042.63    71.005203    52.510170
5043.83    81.258293    46.062004
5045.03    71.707558    54.396660
5046.23    69.383301    66.309731
5047.43    60.586586    70.293961
5048.63    57.771187    64.423218
5049.83    63.114223    68.200493
5051.03    64.722023    77.699257
5052.23    59.176723    63.574566
5053.43    64.603554    66.953842
5054.63    74.584496    62.931908
5055.83    76.397018    48.362480
5057.03    70.300377    51.708790
5058.23    65.481308    55.972378
5059.43    55.329079    64.296013
5060.63    45.276169    71.838287
5061.83    52.946346    68.066093
5063.03    74.178070    56.813423
5064.23    53.603004    60.096809
5065.43    52.801121    62.357979
5066.63    71.337044    60.528191
5067.83    51.260052    68.472351
5069.03    39.874809    73.929939
5070.23    53.011612    61.980473
5071.43    59.843773    54.259777
5072.62    55.685787    61.170517
5073.82    73.068329    57.484112
5075.02    60.440521    60.320732
5076.22    51.025581    66.472374
5077.42    58.194668    66.401360
5078.62    52.294697    60.617943
5079.82    53.252632    57.212841
5081.02    44.634727    74.395798
5082.22    49.495735    77.120720
5083.42    75.346497    58.054501
5084.62    67.823387    78.359940
5085.82    58.708466    68.035011
5087.02    54.938293    59.016239
5088.22    47.878292    76.737633
5089.42    47.640594    75.479973
5090.62    73.985901    63.758121
5091.82    88.477440    52.278908
5093.02    79.080254    56.796577
5094.22    72.014885    76.466568
5095.42    73.770340    77.396202
5096.62    56.912586    76.478088
5097.82    49.320854    80.154655
5099.02    63.123203    79.788147
5100.22    52.707611    74.091835
5101.42    57.172760    72.222725
5102.62    71.413025    73.672714
5103.82    70.471458    73.857834
5105.02    54.922005    73.569984
5106.22    50.917473    77.801567
5107.41    70.160553    70.502541
5108.61    80.429054    56.641785
5109.81    70.284241    52.249409
5111.01    100.377357    49.711300
5112.21    91.034332    66.456520
5113.41    69.082848    75.505424
5114.61    86.252197    59.790833
5115.81    83.019760    61.050335
5117.01    68.443497    65.725403
5118.21    55.165459    65.511208
5119.41    62.750767    62.630749
5120.61    96.801971    58.686417
5121.81    80.301582    56.830761
5123.01    56.712708    60.699379
5124.21    62.453930    65.217804
5125.41    66.436798    63.261650
5126.61    57.815189    64.684067
5127.81    46.418011    77.383636
5129.01    50.187630    82.473503
5130.21    66.507118    68.552040
5131.41    61.704388    71.241844
5132.61    60.297409    70.622398
5133.81    58.148705    67.519455
5135.01    56.593632    70.085007
5136.21    94.825394    57.883434
5137.41    86.686729    52.171078
5138.61    68.053040    59.302490
5139.81    77.671211    71.481903
5141.01    51.434570    81.526451
5142.20    62.366837    71.063698
5143.40    81.545525    59.965397
5144.60    67.562225    64.547844
5145.80    56.782024    68.975632
5147.00    65.133102    65.850327
5148.20    74.157654    59.142647
5149.40    67.393761    58.646214
5150.60    54.739666    67.608223
5151.80    60.198956    70.284760
5153.00    71.663666    67.553413
5154.20    79.418243    63.059982
5155.40    86.136345    61.467812
5156.60    79.806473    76.680801
5157.80    81.637192    66.852501
5159.00    85.990097    49.444916
5160.20    72.364334    71.409164
5161.40    68.296700    77.708191
5162.60    55.068352    75.792221
5163.80    46.497948    75.305527
5165.00    73.225197    66.482605
5166.20    101.450813    52.778221
5167.40    97.946976    52.043613
5168.60    75.584900    53.660980
5169.80    66.271667    44.192848
5171.00    67.162354    51.224304
5172.20    75.431541    55.705044
5173.40    77.910912    59.619987
5174.60    68.521500    71.783142
5175.80    68.541656    64.060028
5176.99    74.389381    59.512672
5178.19    71.714134    60.114594
5179.39    60.412090    54.142029
5180.59    61.915138    57.396431
5181.79    61.417141    58.209812
5182.99    66.800087    52.394493
5184.19    88.655746    50.610809
5185.39    93.943268    60.116650
5186.59    69.282959    62.150848
5187.79    62.698612    57.314381
5188.99    97.418488    60.384552
5190.19    89.942535    69.398056
5191.39    60.203873    72.177742
5192.59    60.037029    66.083817
5193.79    88.211716    60.917332
5194.99    71.703255    69.397156
5196.19    49.519154    92.583916
5197.39    43.909740    109.577431
5198.59    43.140144    104.809433
5199.79    58.209602    99.199318
5200.99    71.707321    89.928291
5202.19    67.350479    82.682358
5203.39    48.425995    87.302200
5204.59    37.696087    89.257042
5205.79    58.779671    82.046021
5206.99    81.969154    72.872696
5208.19    70.357300    71.683594
5209.39    72.351997    75.457718
5210.59    69.535774    86.300941
5211.78    66.976471    86.903854
5212.98    89.831314    65.180618
5214.18    85.630943    68.459541
5215.38    87.790184    75.868073
5216.58    95.447319    71.837242
5217.78    65.470070    74.457504
5218.98    64.388062    75.021774
5220.18    59.251816    81.343933
5221.38    35.328491    92.435989
5222.58    50.316013    88.417358
5223.78    87.450821    68.120323
5224.98    97.119156    57.181358
5226.18    70.380615    66.246368
5227.38    57.878025    73.007828
5228.58    72.170975    74.679466
5229.78    79.415878    73.328827
5230.98    68.017868    68.255478
5232.18    78.819695    60.523048
5233.38    73.777527    72.273453
5234.58    68.274879    75.367584
5235.78    83.092667    57.550117
5236.98    65.282028    84.386475
5238.18    65.293686    83.909416
5239.38    89.992905    59.185001
5240.58    89.670700    71.470642
5241.78    54.747528    81.273270
5242.98    44.448624    84.518471
5244.18    71.643326    77.717773
5245.38    86.015991    58.126987
5246.57    72.376038    67.538185
5247.77    76.989937    72.357162
5248.97    93.461807    59.891579
5250.17    62.391567    70.666351
5251.37    63.077564    74.674164
5252.57    80.798111    73.949234
5253.77    74.189484    78.018646
5254.97    68.266937    72.748474
5256.17    66.057045    76.175987
5257.37    78.826271    83.930893
5258.57    100.584763    80.683762
5259.77    86.777351    74.513641
5260.97    76.168396    73.100388
5262.17    76.938187    72.340179
5263.37    65.067223    65.309029
5264.57    69.644905    60.656353
5265.77    83.692719    57.361790
5266.97    87.716568    53.816715
5268.17    77.462845    53.853329
5269.37    68.397095    59.749260
5270.57    67.710213    65.184586
5271.77    74.735748    67.872742
5272.97    83.321449    75.262939
5274.17    72.347565    79.896568
5275.37    67.745506    74.737579
5276.57    93.305122    66.082184
5277.77    100.915436    72.921280
5278.97    94.619232    76.796120
5280.17    88.182541    67.475288
5281.36    80.604225    60.630699
5282.56    68.667618    74.223564
5283.76    68.965309    76.264221
5284.96    75.910561    61.974689
5286.16    58.746380    76.634384
5287.36    50.859051    91.855484
5288.56    54.534683    89.968697
5289.76    58.668350    78.951454
5290.96    79.311646    73.564034
5292.16    94.021446    72.601845
5293.36    89.426994    67.638802
5294.56    79.321091    58.933056
5295.76    85.295311    67.830429
5296.96    86.699020    80.788467
5298.16    77.988716    86.135887
5299.36    83.861641    93.550781
5300.56    71.499161    93.346588
5301.76    62.609505    78.674461
5302.96    79.250519    65.367302
5304.16    72.164040    85.473434
5305.36    71.510132    88.345543
5306.56    81.023697    72.462692
5307.76    70.077530    81.916840
5308.96    63.819042    81.833496
5310.16    75.300949    75.926605
5311.36    91.912308    76.994560
5312.56    89.831345    76.743279
5313.76    80.365990    82.489449
5314.96    73.929428    80.159119
5316.15    68.492004    69.233513
5317.35    57.672409    98.420868
5318.55    65.932236    100.494934
5319.75    79.696526    71.346306
5320.95    62.161026    86.000755
5322.15    71.077705    84.115242
5323.35    77.636223    69.566269
5324.55    57.226997    69.210335
5325.75    72.985710    62.148689
5326.95    65.422493    62.096321
5328.15    47.007557    69.760612
5329.35    77.921265    69.816864
5330.55    84.591301    66.216133
5331.75    72.731697    67.679756
5332.95    70.030350    76.842705
5334.15    67.274239    85.217163
5335.35    68.418617    79.686638
5336.55    68.057297    77.918610
5337.75    62.075386    91.178726
5338.95    68.057457    74.260735
5340.15    76.443108    55.470608
5341.35    66.081314    66.876144
5342.55    38.831596    92.322784
5343.75    62.979088    84.090126
5344.95    98.488007    61.738850
5346.15    82.425438    65.338516
5347.35    65.849411    76.336426
5348.55    74.486671    72.134224
5349.75    87.983795    60.792866
5350.94    76.138641    68.347557
5352.14    80.757370    76.898338
5353.34    95.850296    79.388229
5354.54    97.961395    77.648872
5355.74    97.450577    71.230148
5356.94    80.880508    81.544647
5358.14    65.067528    101.063332
5359.34    81.753769    97.292770
5360.54    90.957909    76.524643
5361.74    92.211937    67.648994
5362.94    88.243912    81.658730
5364.14    53.673954    88.907578
5365.34    60.629936    81.918999
5366.54    86.207947    73.810997
5367.74    54.667171    77.501358
5368.94    84.074181    74.263191
5370.14    119.786156    65.882950
5371.34    88.127449    67.033348
5372.54    70.584145    83.026779
5373.74    77.141113    92.159119
5374.94    87.662712    86.026131
5376.14    89.957260    76.889847
5377.34    96.301048    73.744797
5378.54    99.409035    81.626114
5379.74    91.781998    90.330368
5380.94    87.716072    76.936356
5382.14    91.935951    69.536919
5383.34    87.324631    78.882751
5384.53    61.725403    85.263054
5385.73    67.289108    85.205933
5386.93    102.317413    74.720070
5388.13    122.775513    61.312881
5389.33    97.467545    69.285355
5390.53    81.203331    78.317238
5391.73    97.096489    78.062111
5392.93    105.312126    82.990356
5394.13    87.218895    91.641846
5395.33    79.764305    85.898895
5396.53    105.382591    65.369423
5397.73    104.691208    69.693008
5398.93    91.656448    68.733299
5400.13    90.058235    62.303108
5401.33    93.299904    92.145378
5402.53    89.266930    94.933525
5403.73    86.763237    72.792908
5404.93    90.179085    70.688110
5406.13    69.040855    77.204437
5407.33    69.024635    70.989639
5408.53    93.931725    59.906487
5409.73    74.078041    76.217552
5410.93    81.142273    83.003654
5412.13    99.738640    76.896370
5413.33    69.549911    81.697044
5414.53    82.233337    77.742599
5415.73    100.793884    82.961227
5416.93    80.314621    100.735107
5418.13    83.718597    87.600876
5419.32    107.033913    77.929893
5420.52    115.164207    84.205734
5421.72    90.158638    78.862000
5422.92    80.569824    67.447922
5424.12    87.011086    66.862061
5425.32    84.932961    81.005173
5426.52    79.962280    86.164406
5427.72    85.054596    79.079636
5428.92    94.994057    73.991104
5430.12    87.295998    84.638474
5431.32    69.485245    86.491554
5432.52    68.414917    77.908806
5433.72    92.595390    75.215469
5434.92    92.129524    74.482849
5436.12    95.827614    77.976044
5437.32    121.077286    83.883690
5438.52    112.616180    79.915161
5439.72    107.634926    73.353035
5440.92    112.443733    76.755219
5442.12    91.347153    90.161507
5443.32    83.700363    82.573555
5444.52    92.972290    72.180443
5445.72    100.844635    82.258202
5446.92    114.142677    75.994232
5448.12    117.899986    70.613548
5449.32    112.868034    80.644188
5450.52    123.316078    84.207642
5451.72    117.851303    80.719727
5452.92    97.286690    83.179558
5454.11    91.485184    97.645233
5455.31    89.122917    97.011406
5456.51    90.251274    90.682648
5457.71    97.973412    103.032509
5458.91    99.786644    133.226196
5460.11    83.752831    147.259888
5461.31    69.951431    129.194092
5462.51    94.984215    101.763069
5463.71    109.765884    91.175865
5464.91    101.884529    92.852989
5466.11    98.189247    89.047234
5467.31    98.433380    93.143471
5468.51    102.792343    94.745224
5469.71    103.619835    85.748055
5470.91    83.446945    86.522408
5472.11    77.210625    91.821190
5473.31    109.250648    85.912140
5474.51    151.665802    64.992699
5475.71    124.445419    67.056358
5476.91    75.609634    88.681313
5478.11    96.342224    94.523857
5479.31    103.244522    79.418037
5480.51    93.913971    72.165939
5481.71    96.201035    87.225784
5482.91    87.080681    92.723320
5484.11    66.772514    97.184402
5485.31    58.979168    103.003601
5486.51    83.814705    94.846466
5487.71    90.516304    96.653786
5488.90    79.587845    99.956802
5490.10    91.741043    81.827721
5491.30    116.473518    74.084961
5492.50    108.460991    88.871384
5493.70    66.117432    104.752342
5494.90    76.205978    82.590912
5496.10    104.439316    62.130402
5497.30    102.480942    74.393150
5498.50    80.422638    96.299561
5499.70    82.529037    101.514626
5500.90    103.357979    90.893036
5502.10    103.447418    83.493729
5503.30    96.645317    80.192337
5504.50    92.150597    83.715759
5505.70    92.586456    88.432426
5506.90    102.086166    73.019409
5508.10    93.777214    73.446976
5509.30    77.353027    95.534523
5510.50    109.418007    83.699448
5511.70    125.528923    77.175682
5512.90    109.496407    90.546097
5514.10    112.231606    91.622398
5515.30    111.453300    83.599808
5516.50    99.779922    79.013664
5517.70    90.246300    84.239326
5518.90    89.125618    89.146194
5520.10    97.366653    83.914070
5521.30    105.235939    72.650589
5522.50    95.643913    75.474434
5523.69    90.343407    84.288887
5524.89    101.830574    82.145935
5526.09    109.506523    66.364174
5527.29    80.231415    77.830223
5528.49    52.100430    99.513832
5529.69    81.727539    86.777588
5530.89    98.266815    85.935600
5532.09    96.641014    96.215317
5533.29    103.046288    91.458954
5534.49    93.947792    79.204094
5535.69    74.442764    78.030708
5536.89    71.217804    88.500679
5538.09    104.321869    85.334961
5539.29    119.805412    73.403358
5540.49    107.907219    70.154015
5541.69    111.724533    86.968742
5542.89    93.494301    105.708633
5544.09    70.361336    106.495132
5545.29    89.512878    86.605942
5546.49    117.200928    75.398911
5547.69    127.147644    81.902580
5548.89    119.404228    93.307625
5550.09    115.164856    90.017860
5551.29    101.345383    90.686646
5552.49    83.886131    99.216034
5553.69    102.468948    85.924454
5554.89    113.381744    82.031273
5556.09    102.832199    92.065796
5557.29    104.501671    86.084877
5558.48    101.477928    90.257385
5559.68    98.834740    96.239693
5560.88    111.108513    81.542656
5562.08    108.243004    83.830818
5563.28    93.918358    95.663773
5564.48    86.663361    94.003136
5565.68    84.610229    90.240013
5566.88    81.302017    92.964005
5568.08    78.663689    98.043091
5569.28    89.109100    92.108162
5570.48    107.890419    86.800316
5571.68    117.976807    91.090233
5572.88    106.239731    131.787079
5574.08    99.546913    339.769775
5575.28    102.022552    642.299683
5576.48    106.149582    820.103027
5577.68    141.800079    802.258423
5578.88    155.848572    686.724060
5580.08    107.310326    585.869019
5581.28    89.246101    457.614746
5582.48    88.326744    320.470428
5583.68    67.916107    213.950592
5584.88    53.945118    144.240204
5586.08    85.994553    96.272110
5587.28    127.955124    70.161133
5588.48    94.456085    79.948418
5589.68    96.672638    85.790634
5590.88    139.248978    78.806030
5592.08    121.767410    81.917519
5593.27    95.470627    81.431511
5594.47    95.993797    77.877228
5595.67    113.111847    80.362091
5596.87    114.355957    81.302391
5598.07    108.628731    86.608505
5599.27    113.109207    96.673645
5600.47    113.455101    90.500687
5601.67    93.959030    85.104538
5602.87    68.694794    91.579437
5604.07    82.457909    91.493874
5605.27    124.802605    87.076797
5606.47    144.918991    89.047188
5607.67    103.752502    101.811195
5608.87    94.730591    102.605408
5610.07    115.120834    90.990166
5611.27    96.193909    85.447746
5612.47    100.066765    85.620552
5613.67    107.603477    91.772598
5614.87    83.507141    99.408287
5616.07    105.868469    90.509689
5617.27    123.503586    81.277626
5618.47    87.232788    84.909485
5619.67    75.424667    80.171623
5620.87    81.820450    77.910652
5622.07    88.762604    86.331970
5623.27    110.803474    90.639839
5624.47    121.243675    82.674202
5625.67    113.940689    78.098557
5626.87    116.433182    95.900803
5628.06    138.162750    83.254402
5629.26    145.159088    57.465931
5630.46    107.173965    73.921219
5631.66    97.368652    79.582298
5632.86    114.189003    69.992599
5634.06    114.561333    75.620544
5635.26    108.598412    94.643929
5636.46    102.173203    98.346390
5637.66    97.894470    80.365433
5638.86    100.218735    87.001251
5640.06    86.382019    99.089027
5641.26    68.957756    93.856812
5642.46    103.959656    86.101257
5643.66    121.530380    83.947136
5644.86    103.073326    84.034225
5646.06    113.261215    78.746025
5647.26    114.097847    80.815727
5648.46    101.807899    85.941345
5649.66    109.697495    79.686485
5650.86    107.927704    79.989670
5652.06    88.519760    89.574890
5653.26    74.687347    95.586746
5654.46    96.361572    88.965988
5655.66    118.568047    82.953156
5656.86    103.245979    90.663071
5658.06    84.848694    98.747551
5659.26    104.504623    88.884338
5660.46    143.319427    68.065033
5661.66    113.551628    75.326767
5662.85    75.637672    92.929459
5664.05    81.095039    96.322052
5665.25    97.988869    86.142593
5666.45    109.013672    85.104660
5667.65    112.035965    94.124130
5668.85    112.649773    91.875664
5670.05    110.218819    82.383018
5671.25    109.265739    78.244675
5672.45    113.700035    87.031944
5673.65    110.713150    96.388374
5674.85    105.860878    98.889153
5676.05    108.752937    98.469978
5677.25    105.461792    108.386879
5678.45    93.319397    111.176727
5679.65    88.175903    93.583549
5680.85    114.917992    81.387459
5682.05    125.011436    85.015701
5683.25    103.649414    94.691162
5684.45    117.549263    90.123627
5685.65    119.171516    88.247742
5686.85    96.256088    94.895027
5688.05    111.364357    92.686913
5689.25    124.446915    97.362137
5690.45    117.844627    101.721352
5691.65    116.878380    83.559074
5692.85    108.264610    83.904716
5694.05    100.158218    101.221443
5695.25    111.478577    101.495018
5696.44    120.071533    94.453209
5697.64    121.183418    92.350075
5698.84    120.631683    97.131340
5700.04    111.699661    96.778465
5701.24    111.331337    88.160118
5702.44    124.524277    78.022362
5703.64    114.533455    78.209908
5704.84    100.595413    85.688370
5706.04    101.149574    91.682800
5707.24    96.794777    91.250771
5708.44    103.716934    89.789894
5709.64    111.757988    89.157646
5710.84    81.517235    84.609604
5712.04    77.280304    83.324356
5713.24    115.643387    83.949005
5714.44    140.638611    79.539818
5715.64    138.577438    88.868423
5716.84    122.715019    102.359856
5718.04    113.520020    94.792076
5719.24    110.564346    84.838028
5720.44    104.205513    91.807281
5721.64    91.650101    111.028000
5722.84    93.586311    99.993446
5724.04    105.606392    87.822037
5725.24    113.053459    101.982712
5726.44    116.014450    84.630104
5727.64    121.381973    67.173080
5728.84    128.027252    84.589142
5730.04    120.682854    99.970642
5731.23    105.038773    100.567871
5732.43    91.863770    95.905991
5733.63    85.575737    102.613106
5734.83    85.835175    105.107353
5736.03    92.799271    94.253494
5737.23    105.053284    81.484795
5738.43    106.273064    81.012032
5739.63    96.531082    93.802063
5740.83    89.820297    106.635666
5742.03    81.802887    103.811691
5743.23    74.495438    89.256828
5744.43    81.410294    78.333290
5745.63    119.254570    73.747559
5746.83    139.317001    77.480537
5748.03    109.538086    86.103104
5749.23    120.895576    83.918457
5750.43    134.307526    76.591698
5751.63    97.295723    76.188850
5752.83    78.027237    81.352592
5754.03    92.581291    79.970070
5755.23    115.566887    75.865936
5756.43    112.508461    94.678711
5757.63    99.988861    105.107498
5758.83    93.496033    91.907166
5760.03    82.859467    85.560806
5761.23    65.345467    95.656982
5762.43    71.020409    104.998016
5763.63    125.681198    91.384331
5764.83    116.858650    93.844604
5766.02    74.998169    109.348053
5767.22    116.376892    103.401047
5768.42    118.891113    107.362747
5769.62    91.898445    115.837234
5770.82    120.440674    103.153214
5772.02    128.746185    91.558304
5773.22    115.610558    91.964790
5774.42    119.324387    97.199692
5775.62    121.817253    91.239647
5776.82    108.384171    88.043060
5778.02    88.866554    98.455681
5779.22    98.489922    100.957649
5780.42    111.953476    100.530586
5781.62    111.308243    98.579643
5782.82    123.910240    77.907257
5784.02    126.181786    63.107922
5785.22    104.549820    75.438812
5786.42    86.081139    103.103813
5787.62    105.252724    97.158409
5788.82    135.024033    74.001801
5790.02    113.579803    99.516266
5791.22    103.231689    117.250290
5792.42    108.251205    108.379311
5793.62    84.419724    104.306404
5794.82    85.996597    99.219933
5796.02    109.216743    92.239464
5797.22    111.785027    89.789352
5798.42    106.068817    91.761238
5799.62    97.967957    97.437256
5800.81    92.769234    101.858154
5802.01    110.413322    92.985291
5803.21    119.382050    84.009590
5804.41    100.430862    86.530075
5805.61    99.851372    86.189964
5806.81    102.938255    85.196899
5808.01    98.955963    86.211861
5809.21    118.215691    82.255974
5810.41    127.096382    82.327614
5811.61    115.276283    86.093498
5812.81    121.242836    80.415970
5814.01    123.312973    84.869576
5815.21    114.983574    98.028122
5816.41    117.318794    93.817123
5817.61    114.788673    81.350761
5818.81    102.016212    77.313400
5820.01    93.923546    86.606422
5821.21    110.114014    83.577362
5822.41    122.009758    81.474525
5823.61    101.845528    99.130424
5824.81    114.380478    86.157562
5826.01    131.176682    69.090569
5827.21    107.416580    86.645226
5828.41    106.324615    87.121635
5829.61    113.169075    83.539108
5830.81    100.481857    96.762932
5832.01    104.470627    92.929008
5833.21    132.245239    84.922737
5834.41    149.340271    86.987450
5835.60    106.446648    82.689102
5836.80    92.979660    75.530525
5838.00    134.337692    77.313942
5839.20    131.891830    93.220238
5840.40    107.195885    98.198425
5841.60    97.002213    89.986336
5842.80    105.773788    89.838379
5844.00    113.791710    77.934189
5845.20    104.627800    69.729965
5846.40    84.212387    94.930695
5847.60    98.887398    98.818588
5848.80    119.946487    81.330544
5850.00    102.847870    80.524986
5851.20    119.686974    88.923546
5852.40    134.258331    92.841103
5853.60    94.986923    86.915291
5854.80    86.839890    80.929581
5856.00    110.565292    76.946999
5857.20    125.498405    73.485168
5858.40    119.526688    72.933769
5859.60    105.935333    83.140060
5860.80    101.532410    95.972557
5862.00    110.413635    85.066246
5863.20    119.827576    78.782112
5864.40    123.730331    90.422272
5865.60    126.888023    94.911247
5866.80    111.009834    101.229233
5868.00    93.010063    107.992645
5869.20    111.236214    98.549805
5870.39    114.415504    85.701660
5871.59    101.946732    79.834282
5872.79    112.900925    80.438774
5873.99    108.146194    81.006943
5875.19    98.575409    79.826164
5876.39    110.895363    80.000465
5877.59    92.575829    84.720970
5878.79    82.533607    88.025551
5879.99    117.422318    85.381760
5881.19    104.411774    86.078812
5882.39    83.978378    86.473961
5883.59    105.231895    83.847656
5884.79    104.130165    90.347328
5885.99    90.673775    114.989525
5887.19    94.316956    145.836060
5888.39    111.578041    151.626205
5889.59    102.122116    148.326355
5890.79    79.800468    139.992966
5891.99    109.135437    110.771088
5893.19    117.823524    114.741776
5894.39    90.550102    144.321762
5895.59    90.201965    132.319885
5896.79    99.552696    102.806030
5897.99    103.174545    85.258957
5899.19    103.091522    88.053696
5900.39    99.215019    98.544579
5901.59    100.091934    94.149803
5902.79    111.719681    70.536934
5903.99    119.346405    72.087997
5905.18    121.376617    80.664124
5906.38    119.847595    73.075890
5907.58    109.004936    89.407188
5908.78    116.680847    95.944336
5909.98    137.244858    76.459175
5911.18    104.783157    92.819046
5912.38    96.048492    103.621681
5913.58    132.135193    89.185936
5914.78    109.917160    101.701019
5915.98    92.182831    101.546387
5917.18    112.776810    80.133972
5918.38    121.550240    82.347488
5919.58    122.417442    82.963432
5920.78    117.248978    79.321991
5921.98    100.641464    91.629898
5923.18    95.755127    89.027634
5924.38    105.540184    80.129143
5925.58    114.729568    88.283890
5926.78    115.022491    76.879395
5927.98    110.045578    67.215485
5929.18    110.036552    91.089714
5930.38    121.701721    111.398247
5931.58    125.483368    116.075607
5932.78    111.221100    110.011292
5933.98    104.772896    97.640968
5935.18    100.675697    93.446442
5936.38    96.492073    95.663872
5937.58    107.596710    81.314705
5938.78    104.391335    73.885681
5939.97    82.492630    83.693375
5941.17    79.405945    88.765785
5942.37    99.456062    82.347412
5943.57    117.117325    74.963600
5944.77    102.958138    81.269020
5945.97    82.027023    88.115105
5947.17    86.927322    87.581688
5948.37    121.119476    82.060890
5949.57    124.188972    77.372139
5950.77    110.109024    83.700790
5951.97    122.279747    99.390648
5953.17    141.380859    96.171608
5954.37    121.974403    92.283241
5955.57    69.492722    103.243950
5956.77    77.054832    96.830292
5957.97    97.004242    78.790825
5959.17    84.959457    72.166954
5960.37    87.227287    88.348160
5961.57    101.039238    87.487511
5962.77    109.919434    68.176788
5963.97    106.250481    77.309875
5965.17    91.624214    85.144920
5966.37    88.806404    76.443924
5967.57    116.777336    70.553574
5968.77    123.951317    82.694756
5969.97    112.351044    93.841797
5971.17    116.636467    80.872093
5972.37    115.458130    76.523697
5973.57    102.846123    84.853645
5974.76    92.642410    89.426926
5975.96    103.632553    83.612274
5977.16    126.570251    74.939522
5978.36    130.203735    72.677658
5979.56    86.164017    77.238380
5980.76    64.804977    85.012619
5981.96    90.624580    91.629250
5983.16    91.511230    93.400528
5984.36    101.401009    86.821915
5985.56    127.039574    77.986046
5986.76    122.226341    77.567284
5987.96    108.228500    73.502853
5989.16    99.221039    65.534622
5990.36    94.132256    64.344475
5991.56    109.638153    66.387421
5992.76    124.297974    69.710228
5993.96    111.474426    73.034546
5995.16    100.970116    70.397408
5996.36    100.173714    68.225266
5997.56    102.278023    74.178322
5998.76    106.081734    83.336197
5999.96    104.069901    85.100723
6001.16    95.706345    80.106720
6002.36    94.965317    84.059235
6003.56    111.236305    87.195435
6004.76    121.333336    85.959030
6005.96    90.322365    89.662346
6007.16    85.178886    83.921494
6008.35    108.745590    76.093201
6009.55    102.841927    85.180397
6010.75    95.780655    81.947845
6011.95    108.166214    65.835213
6013.15    128.505920    59.670914
6014.35    119.763222    68.673759
6015.55    98.220161    72.913994
6016.75    95.551109    63.929585
6017.95    104.458313    75.208099
6019.15    102.908249    89.704811
6020.35    94.977974    85.343735
6021.55    115.785248    72.766678
6022.75    108.800369    64.995972
6023.95    73.364914    64.975365
6025.15    88.592102    66.078110
6026.35    108.738663    71.893265
6027.55    105.511398    80.442009
6028.75    101.248993    82.823029
6029.95    114.595787    75.358040
6031.15    120.034737    71.703545
6032.35    92.569908    83.666069
6033.55    83.399811    90.106438
6034.75    95.251595    86.628876
6035.95    104.237595    79.592545
6037.15    103.967789    72.187698
6038.35    95.220856    72.609451
6039.55    87.094337    80.432144
6040.75    92.591240    81.310196
6041.95    98.408836    74.091095
6043.14    99.978386    68.991516
6044.34    109.206116    76.968452
6045.54    120.966400    82.512733
6046.74    113.656334    73.450943
6047.94    83.488731    55.559364
6049.14    102.832008    57.845512
6050.34    134.472153    67.365372
6051.54    112.337807    62.791328
6052.74    94.067581    71.132736
6053.94    99.417931    77.383415
6055.14    112.835732    68.555267
6056.34    114.353012    72.464241
6057.54    120.680023    72.754730
6058.74    122.282112    69.383080
6059.94    80.597076    92.111092
6061.14    70.316681    93.455254
6062.34    96.643784    73.620514
6063.54    90.174973    80.255051
6064.74    83.074364    79.351479
6065.94    83.450829    69.354660
6067.14    78.172951    72.158936
6068.34    87.830193    71.745743
6069.54    88.624092    72.199059
6070.74    69.453346    76.828415
6071.94    84.654709    64.352058
6073.14    91.511322    55.593590
6074.34    67.247665    66.738243
6075.54    70.826553    79.457123
6076.74    98.031952    77.653465
6077.93    121.299896    65.782661
6079.13    120.453758    62.896828
6080.33    105.975410    66.526466
6081.53    95.442085    74.355972
6082.73    96.308975    84.388817
6083.93    91.608505    84.702560
6085.13    90.472191    73.550285
6086.33    105.467590    61.655365
6087.53    119.571907    65.719742
6088.73    115.899643    71.714287
6089.93    101.493233    68.320282
6091.13    107.325928    66.566505
6092.33    120.204399    64.944534
6093.53    121.853882    64.047539
6094.73    107.995087    69.148109
6095.93    85.892021    75.283661
6097.13    76.551964    76.778511
6098.33    90.296967    72.951492
6099.53    90.271500    72.067703
6100.73    89.013512    78.232735
6101.93    105.566818    85.175377
6103.13    109.621887    77.895538
6104.33    99.502357    73.480293
6105.53    93.594116    78.940727
6106.73    108.125114    72.742439
6107.93    115.746361    62.548378
6109.13    113.162086    59.038300
6110.33    121.895210    62.713135
6111.53    116.566475    64.215065
6112.72    93.938240    65.788094
6113.92    74.452179    73.793259
6115.12    73.736076    79.139923
6116.32    89.483673    70.560081
6117.52    102.322235    54.724674
6118.72    89.053162    61.376709
6119.92    84.388878    71.090660
6121.12    103.486130    71.885307
6122.32    113.354294    77.863518
6123.52    106.549965    66.214676
6124.72    100.312592    52.172451
6125.92    112.699623    68.476120
6127.12    119.626038    71.436913
6128.32    109.372482    66.593002
6129.52    93.889618    74.179916
6130.72    99.820068    64.023651
6131.92    105.251541    60.541138
6133.12    97.202736    77.078018
6134.32    103.666740    76.506073
6135.52    114.037643    66.280746
6136.72    115.910522    59.844566
6137.92    110.393105    60.575432
6139.12    101.643288    72.403282
6140.32    99.752319    76.697861
6141.52    106.850510    61.666100
6142.72    101.070587    66.763519
6143.92    102.716080    74.951225
6145.12    118.719101    66.613968
6146.32    103.471039    69.355202
6147.51    74.052528    76.179138
6148.71    69.087814    71.941933
6149.91    100.713997    57.085304
6151.11    99.508438    61.191887
6152.31    77.059738    77.433136
6153.51    84.208466    78.151787
6154.71    64.396774    75.029701
6155.91    53.031452    73.720795
6157.11    83.711258    72.352951
6158.31    84.950798    69.636696
6159.51    64.922295    69.560852
6160.71    66.612259    67.143494
6161.91    106.387375    53.304054
6163.11    104.033592    56.604729
6164.31    84.160088    69.563774
6165.51    122.177109    63.497776
6166.71    132.384644    59.098324
6167.91    102.995857    60.268654
6169.11    78.908432    64.953972
6170.31    87.402603    82.954262
6171.51    97.024811    90.997749
6172.71    92.989212    78.243698
6173.91    100.485275    65.568428
6175.11    104.416557    66.737022
6176.31    95.235428    71.932381
6177.51    82.921616    64.617447
6178.71    87.369469    58.600777
6179.91    96.115372    61.927155
6181.11    97.099945    70.956299
6182.30    106.771652    75.005165
6183.50    94.529419    77.111488
6184.70    70.995018    75.978973
6185.90    90.807037    64.688324
6187.10    97.689896    60.164047
6188.30    90.639816    59.092648
6189.50    103.918427    51.663914
6190.70    94.858627    61.512596
6191.90    79.937119    73.898888
6193.10    88.191910    69.920662
6194.30    104.370605    62.664078
6195.50    110.965942    61.595806
6196.70    105.725464    62.899170
6197.90    98.668396    58.884995
6199.10    87.466599    67.896011
6200.30    79.404953    76.942986
6201.50    80.897949    67.658684
6202.70    78.338913    66.773766
6203.90    75.973457    72.962479
6205.10    77.090538    75.044533
6206.30    74.848030    71.112846
6207.50    87.454727    58.236702
6208.70    99.674004    51.526596
6209.90    84.891228    66.760139
6211.10    92.633171    72.039810
6212.30    106.845879    59.887886
6213.50    95.953087    49.537029
6214.70    89.769058    62.037243
6215.90    100.936707    62.802162
6217.09    117.102921    45.906944
6218.29    115.030785    53.406601
6219.49    101.049789    75.776459
6220.69    91.366806    86.942314
6221.89    95.838089    74.076759
6223.09    104.732742    59.600418
6224.29    105.892303    54.320026
6225.49    101.015312    56.745544
6226.69    105.237808    59.611126
6227.89    102.379578    56.363003
6229.09    93.577019    55.734493
6230.29    100.113182    64.843567
6231.49    123.648956    51.830677
6232.69    134.034744    49.580650
6233.89    113.317070    83.988876
6235.09    94.070328    100.158760
6236.29    101.501976    92.910393
6237.49    112.576363    85.047508
6238.69    84.643295    93.205643
6239.89    70.518463    91.201607
6241.09    74.104027    80.014702
6242.29    75.477921    74.899788
6243.49    99.154510    68.497734
6244.69    110.762032    61.254009
6245.89    98.025948    55.021168
6247.09    98.955101    49.800938
6248.29    97.742195    53.576382
6249.49    95.731697    54.789696
6250.69    104.107796    43.763180
6251.88    102.723831    49.607304
6253.08    109.404228    56.216778
6254.28    115.808266    56.540565
6255.48    75.248444    79.419815
6256.68    62.690186    99.871635
6257.88    85.412437    99.773689
6259.08    88.022575    85.177353
6260.28    85.665703    71.434151
6261.48    90.886917    66.452560
6262.68    104.868561    67.929321
6263.88    117.869576    68.604523
6265.08    97.665344    76.736740
6266.28    71.301559    82.558060
6267.48    89.948814    68.778503
6268.68    107.384415    54.790115
6269.88    102.016388    55.031651
6271.08    94.251785    64.586761
6272.28    115.138870    63.766808
6273.48    103.930847    61.932423
6274.68    71.494225    65.528244
6275.88    83.184471    66.844955
6277.08    91.448608    55.500992
6278.28    86.146744    49.658539
6279.48    81.343277    59.391647
6280.68    76.273178    62.340935
6281.88    65.844299    68.866211
6283.08    68.379662    76.050476
6284.28    95.802391    71.276024
6285.48    88.634476    76.876518
6286.67    72.080902    89.778793
6287.87    84.679756    89.069542
6289.07    98.323532    64.725197
6290.27    73.542267    58.805607
6291.47    51.227768    68.065552
6292.67    79.895271    62.045303
6293.87    55.036304    76.246017
6295.07    57.734905    75.278870
6296.27    113.671288    131.992401
6297.47    69.069275    438.655243
6298.67    54.451057    734.697998
6299.87    89.250961    852.481995
6301.07    88.161751    779.605164
6302.27    104.120789    458.999023
6303.47    99.854118    180.963654
6304.67    58.126560    123.047241
6305.87    46.606613    111.831863
6307.07    75.115280    89.410889
6308.27    97.718819    71.729332
6309.47    82.979836    73.939445
6310.67    82.766884    58.532440
6311.87    79.371216    52.751244
6313.07    71.357063    60.850807
6314.27    92.723228    47.006409
6315.47    99.402870    48.590294
6316.67    80.707993    57.501324
6317.87    63.399376    50.735077
6319.07    70.380196    50.897835
6320.26    68.233467    69.600609
6321.46    64.654884    78.589844
6322.66    91.914497    50.364582
6323.86    88.876007    47.382843
6325.06    77.602608    57.304501
6326.26    85.895294    57.673538
6327.46    79.396111    74.439232
6328.66    76.209320    83.390747
6329.86    85.072784    79.209167
6331.06    92.195854    75.304321
6332.26    84.871994    65.176529
6333.46    77.028831    53.385315
6334.66    78.115402    47.955997
6335.86    82.904633    50.237915
6337.06    98.983154    50.951492
6338.26    100.054390    53.739044
6339.46    72.318893    61.550831
6340.66    59.132618    61.365425
6341.86    70.916183    52.740253
6343.06    84.549240    47.007111
6344.26    77.716354    52.625633
6345.46    75.559074    55.801048
6346.66    81.691635    54.082424
6347.86    80.780663    56.162621
6349.06    64.025414    65.347145
6350.26    66.300873    50.938862
6351.46    84.330162    38.692982
6352.66    88.161034    57.910103
6353.86    70.708786    68.654663
6355.05    76.962036    64.797340
6356.25    87.034042    62.697624
6357.45    57.038937    69.663773
6358.65    68.925789    60.043907
6359.85    94.319969    85.920036
6361.05    89.635727    178.003937
6362.25    83.715591    275.718933
6363.45    125.965759    288.689453
6364.65    138.743973    231.410080
6365.85    77.467140    158.881561
6367.05    72.268021    78.437187
6368.25    75.139488    47.896366
6369.45    70.698593    56.628433
6370.65    90.327385    50.847088
6371.85    82.368591    52.571301
6373.05    63.239471    57.140057
6374.25    59.127834    57.019451
6375.45    66.699173    57.999851
6376.65    83.321762    56.681740
6377.85    86.946114    54.396542
6379.05    77.005524    51.150799
6380.25    84.819359    45.899395
6381.45    70.940659    62.434025
6382.65    65.368683    64.977791
6383.85    98.873398    33.999100
6385.05    93.446152    52.227097
6386.25    79.394226    63.226021
6387.45    74.414673    47.323822
6388.65    64.386421    46.682678
6389.84    78.629707    46.465244
6391.04    80.357353    54.947563
6392.24    57.657211    67.231918
6393.44    53.529930    59.908154
6394.64    66.930122    52.969273
6395.84    87.480667    49.446468
6397.04    99.000603    44.002552
6398.24    86.798225    40.351322
6399.44    74.810921    40.824169
6400.64    77.060608    43.963245
6401.84    85.707184    48.535416
6403.04    81.464325    57.101425
6404.24    60.180862    68.796638
6405.44    50.272396    70.434776
6406.64    68.323715    57.243378
6407.84    67.909470    55.047920
6409.04    60.498539    51.840252
6410.24    71.429024    45.815517
6411.44    92.802277    50.057468
6412.64    74.099411    52.721123
6413.84    52.350346    56.219864
6415.04    56.844616    58.768127
6416.24    65.130203    52.339722
6417.44    71.596588    50.249458
6418.64    74.845474    48.525383
6419.84    74.958023    46.122906
6421.04    73.060966    51.697819
6422.24    69.170799    47.289814
6423.44    70.877075    45.740170
6424.63    74.988747    55.016254
6425.83    66.017143    53.447472
6427.03    66.659126    55.453850
6428.23    74.934990    51.280254
6429.43    74.226151    36.238785
6430.63    65.324982    39.181915
6431.83    63.506481    39.512875
6433.03    71.743919    39.607384
6434.23    75.518257    47.029716
6435.43    59.968399    39.419899
6436.63    56.811935    43.464851
6437.83    79.046188    46.939404
6439.03    96.750931    33.123760
6440.23    69.350937    46.425568
6441.43    61.229877    53.105221
6442.63    66.734795    51.290840
6443.83    46.640781    61.700184
6445.03    60.282078    54.410603
6446.23    69.878944    49.710056
6447.43    57.190449    51.570347
6448.63    48.395973    46.286026
6449.83    52.907730    47.453278
6451.03    83.931198    39.385105
6452.23    94.857071    34.578423
6453.43    51.742958    52.347610
6454.63    55.669693    52.171066
6455.83    86.047676    42.176281
6457.03    96.602898    37.610989
6458.23    81.753395    39.270008
6459.42    66.405106    45.691395
6460.62    69.442474    48.258564
6461.82    78.504364    42.274101
6463.02    78.689079    36.431145
6464.22    95.685768    49.501980
6465.42    90.268265    64.401993
6466.62    70.444107    64.848305
6467.82    73.415878    57.279335
6469.02    61.048149    61.089310
6470.22    64.579491    61.474487
6471.42    70.678955    59.802696
6472.62    46.713684    66.012772
6473.82    51.329838    57.765579
6475.02    83.241394    47.041809
6476.22    91.157021    45.360798
6477.42    62.793636    47.975887
6478.62    78.601532    45.051395
6479.82    81.841957    40.489536
6481.02    82.158195    31.837835
6482.22    100.334961    27.980949
6483.42    47.991837    56.343895
6484.62    51.219021    55.742828
6485.82    83.885536    39.792313
6487.02    69.866966    45.090950
6488.22    97.121658    32.443226
6489.42    94.466736    36.485073
6490.62    68.162994    44.743534
6491.82    69.086189    33.918976
6493.02    78.880104    31.605150
6494.21    72.384575    38.069637
6495.41    79.681068    47.841541
6496.61    86.306686    65.447266
6497.81    36.108932    89.673508
6499.01    70.557350    70.909515
6500.21    106.205070    50.828053
6501.41    68.803017    58.621666
6502.61    50.981289    55.822056
6503.81    75.113525    46.807091
6505.01    89.350410    47.237000
6506.21    78.677040    56.299835
6507.41    81.274620    57.890976
6508.61    92.548508    48.312260
6509.81    68.410278    48.819954
6511.01    51.083954    50.187336
6512.21    83.190437    39.016296
6513.41    62.206596    51.012436
6514.61    44.610840    56.035439
6515.81    54.411613    51.673477
6517.01    66.926735    51.031437
6518.21    83.221199    38.008656
6519.41    83.747543    30.727856
6520.61    63.534252    43.263607
6521.81    51.671810    58.130299
6523.01    75.315865    46.347027
6524.21    74.777283    37.986210
6525.41    63.979942    41.740086
6526.61    60.977974    49.035042
6527.81    56.782463    48.610744
6529.00    74.106827    32.658974
6530.20    66.528915    41.578491
6531.40    53.413696    64.341347
6532.60    74.417259    65.013535
6533.80    73.889542    66.616661
6535.00    87.629944    55.903999
6536.20    89.230682    50.090565
6537.40    64.511604    56.905552
6538.60    72.282951    46.149315
6539.80    61.424610    45.084110
6541.00    54.271038    51.287270
6542.20    75.029381    48.728802
6543.40    87.626740    41.680363
6544.60    59.773132    51.631405
6545.80    60.625153    48.469868
6547.00    78.769821    42.195496
6548.20    66.132996    52.001068
6549.40    71.624916    40.836342
6550.60    83.962540    41.172142
6551.80    83.715874    50.952908
6553.00    71.718697    58.189156
6554.20    59.731922    72.737480
6555.40    45.171223    78.089767
6556.60    54.601818    61.163536
6557.80    65.651382    41.519089
6559.00    47.501717    43.622482
6560.20    54.535110    48.884861
6561.40    67.082970    46.240295
6562.60    75.211212    44.662468
6563.79    76.203545    49.251785
6564.99    63.110989    48.696629
6566.19    75.931541    45.118843
6567.39    81.153221    47.170174
6568.59    76.137825    47.884117
6569.79    86.938545    40.163612
6570.99    75.193787    43.873512
6572.19    66.697311    47.446854
6573.39    76.109192    44.220005
6574.59    87.415054    38.485161
6575.79    83.437508    39.440014
6576.99    75.849739    60.984375
6578.19    63.850342    68.312805
6579.39    64.402405    50.960426
6580.59    84.714752    37.112236
6581.79    80.782936    39.803844
6582.99    60.160683    40.154224
6584.19    62.239445    39.840729
6585.39    83.810829    41.800079
6586.59    81.357353    35.277679
6587.79    72.776009    26.021605
6588.99    79.171074    24.592085
6590.19    85.731071    31.735085
6591.39    67.698692    39.209419
6592.59    39.161018    41.507870
6593.79    47.706856    44.514137
6594.99    58.670601    43.517723
6596.19    60.267464    44.536674
6597.39    75.642128    52.032597
6598.58    69.717941    43.736885
6599.78    46.107269    46.048820
6600.98    48.073696    53.944084
6602.18    70.341805    49.721172
6603.38    66.069153    42.788315
6604.58    74.583221    51.808468
6605.78    71.725136    54.058727
6606.98    56.793564    53.469734
6608.18    56.767784    56.535412
6609.38    69.911560    40.526611
6610.58    66.750008    27.137203
6611.78    65.708336    35.630257
6612.98    72.104294    37.164902
6614.18    73.039986    17.885593
6615.38    74.794304    30.724503
6616.58    68.345070    40.655487
6617.78    77.058235    35.199978
6618.98    78.219017    38.370033
6620.18    48.266571    53.972828
6621.38    62.575500    38.694733
6622.58    80.785728    26.563511
6623.78    73.952003    34.697338
6624.98    68.758736    41.429176
6626.18    78.667450    32.227211
6627.38    49.163330    37.593662
6628.58    56.194626    46.061207
6629.78    64.545349    42.783562
6630.98    53.255638    32.553825
6632.17    80.038834    29.002365
6633.37    87.546295    32.821259
6634.57    62.702568    49.316753
6635.77    47.567749    54.012054
6636.97    57.426979    41.642437
6638.17    64.069214    39.218506
6639.37    73.121925    35.923920
6640.57    45.667923    44.650112
6641.77    42.006199    46.015968
6642.97    79.281471    32.609749
6644.17    75.793541    31.013897
6645.37    71.603172    29.695202
6646.57    59.092201    32.972530
6647.77    65.215851    31.575768
6648.97    81.256927    23.043631
6650.17    58.399857    24.401733
6651.37    56.822784    34.009079
6652.57    65.225174    35.362843
6653.77    72.081993    32.239273
6654.97    72.917389    34.931461
6656.17    64.204575    40.741386
6657.37    67.834084    43.507362
6658.57    72.717163    44.773067
6659.77    69.404938    38.851578
6660.97    61.241688    31.477930
6662.17    53.198544    37.742733
6663.37    47.804352    47.558094
6664.57    67.392601    35.493881
6665.77    92.400642    24.203123
6666.96    84.006264    30.321022
6668.16    54.779514    37.046124
6669.36    66.901398    35.246277
6670.56    70.815987    36.150330
6671.76    77.108589    29.618877
6672.96    78.758530    28.747770
6674.16    66.069008    37.693756
6675.36    78.252594    25.311201
6676.56    68.386627    37.983032
6677.76    54.497993    43.542377
6678.96    60.787457    33.847553
6680.16    69.775520    30.979567
6681.36    59.599754    31.981350
6682.56    62.516747    30.685919
6683.76    78.501923    29.167343
6684.96    79.796265    32.028362
6686.16    61.871552    34.998734
6687.36    54.974617    33.993187
6688.56    67.829605    38.617630
6689.76    48.031319    34.952698
6690.96    54.040787    23.584257
6692.16    74.882362    17.511932
6693.36    63.898212    26.454233
6694.56    72.926628    41.604408
6695.76    59.364613    33.290466
6696.96    49.880341    32.526745
6698.16    53.424160    39.626068
6699.36    56.876980    35.616180
6700.56    61.886475    28.152140
6701.75    66.808571    26.643225
6702.95    82.670181    29.090029
6704.15    65.760109    36.955452
6705.35    43.336716    42.237232
6706.55    57.496952    39.994686
6707.75    51.369522    41.319500
6708.95    59.165565    34.191727
6710.15    68.313690    27.671928
6711.35    55.155396    30.153399
6712.55    47.463089    34.128132
6713.75    68.978668    32.002289
6714.95    58.219116    34.678238
6716.15    53.832638    40.176857
6717.35    68.965645    31.871593
6718.55    74.356339    28.120295
6719.75    57.463249    38.364269
6720.95    46.922718    31.555901
6722.15    57.849434    28.809977
6723.35    73.249069    29.207302
6724.55    67.333099    28.463434
6725.75    58.545368    26.190393
6726.95    68.379478    27.580847
6728.15    63.311714    37.388721
6729.35    56.058090    33.914536
6730.55    65.472488    22.479668
6731.75    75.246284    22.414101
6732.95    69.805687    29.930662
6734.15    55.292271    28.955387
6735.35    41.623882    28.388166
6736.54    65.044319    24.624680
6737.74    61.173561    26.644817
6738.94    42.087849    39.016289
6740.14    54.159107    40.317039
6741.34    69.021477    20.896877
6742.54    61.104401    25.297348
6743.74    63.490440    37.620060
6744.94    61.518738    35.245796
6746.14    56.975540    31.325171
6747.34    65.101929    33.578007
6748.54    75.992500    27.004066
6749.74    78.887909    27.286821
6750.94    53.715481    38.464939
6752.14    45.051678    33.723160
6753.34    57.496689    22.456705
6754.54    62.341434    24.950508
6755.74    63.010735    27.998741
6756.94    69.003433    25.940477
6758.14    80.341675    29.197472
6759.34    82.499611    27.717266
6760.54    81.784805    24.932066
6761.74    80.259705    27.386139
6762.94    66.678284    28.024801
6764.14    63.156063    29.716158
6765.34    80.371323    30.841650
6766.54    73.182152    30.953276
6767.74    53.538574    28.527937
6768.94    44.131214    31.101597
6770.14    40.732944    36.652977
6771.33    62.157314    22.354595
6772.53    60.199951    22.216137
6773.73    40.182266    30.654324
6774.93    50.722679    36.054832
6776.13    67.850784    32.541767
6777.33    54.410175    23.398169
6778.53    59.835400    25.426723
6779.73    57.111790    33.041100
6780.93    77.523865    25.686172
6782.13    97.251518    20.061352
6783.33    82.742195    27.236883
6784.53    66.573013    28.753262
6785.73    82.969757    17.030922
6786.93    72.124054    17.118555
6788.13    51.737152    21.484562
6789.33    40.452785    25.488958
6790.53    48.213936    27.262217
6791.73    58.424427    23.244184
6792.93    63.806404    16.727135
6794.13    90.729851    19.954924
6795.33    64.504570    31.802134
6796.53    40.337528    28.075247
6797.73    37.439121    26.693579
6798.93    45.706177    24.467754
6800.13    56.692127    18.151104
6801.33    51.991077    36.020168
6802.53    46.098152    40.915386
6803.73    39.858513    32.664150
6804.93    41.217255    28.756121
6806.12    48.505264    31.346706
6807.32    58.518776    27.231756
6808.52    67.304726    17.543182
6809.72    64.196388    20.716543
6810.92    63.165905    23.671381
6812.12    60.255459    24.831841
6813.32    51.171719    25.012217
6814.52    60.160385    27.868240
6815.72    67.839745    29.361252
6816.92    39.361713    27.305630
6818.12    36.046547    32.483154
6819.32    52.285347    17.062824
6820.52    76.606224    11.669912
6821.72    55.948784    24.008287
6822.92    37.761078    32.511986
6824.12    40.949207    35.584190
6825.32    23.659796    40.773598
6826.52    85.175240    34.126842
6827.72    54.105755    55.764011
6828.92    38.057487    60.426479
6830.12    39.808353    64.420334
6831.32    38.474030    62.308777
6832.52    59.279179    41.175133
6833.72    66.746170    42.346970
6834.92    54.205101    45.732235
6836.12    50.358498    33.176670
6837.32    46.639122    35.024075
6838.52    45.666035    39.462189
6839.72    49.277332    30.656620
6840.91    56.737930    23.588360
6842.11    67.161270    26.102427
6843.31    56.999245    25.121620
6844.51    34.737000    25.902424
6845.71    31.193901    30.693960
6846.91    48.636429    23.358553
6848.11    62.347466    16.951790
6849.31    49.732403    27.229195
6850.51    34.873116    31.272728
6851.71    55.815617    20.071012
6852.91    39.247719    28.506859
6854.11    54.336002    19.186087
6855.31    36.186096    22.368641
6856.51    26.699356    30.856663
6857.71    52.252251    26.164488
6858.91    37.959023    30.160154
6860.11    30.924042    38.961784
6861.31    54.068871    46.018669
6862.51    40.863895    61.445015
6863.71    61.013031    60.354919
6864.91    51.109360    61.236748
6866.11    27.173019    50.058807
6867.31    45.346867    23.873575
6868.51    30.505165    29.037958
6869.71    36.411613    21.404213
6870.91    34.560993    25.595972
6872.11    24.141426    33.020683
6873.31    36.172935    24.516174
6874.51    40.748840    17.043911
6875.70    30.608324    21.019077
6876.90    39.107925    20.599773
6878.10    40.998989    21.025496
6879.30    42.240204    29.540726
6880.50    49.602280    15.349483
6881.70    49.102047    22.000324
6882.90    38.265717    29.333046
6884.10    27.236830    23.544472
6885.30    29.810061    22.500122
6886.50    40.049858    22.473711
6887.70    32.186295    28.884058
6888.90    35.545841    26.822836
6890.10    39.709492    24.324926
6891.30    25.061035    28.046383
6892.50    28.366375    23.419788
6893.70    41.056015    20.644606
6894.90    39.140446    27.276665
6896.10    47.018120    22.691628
6897.30    36.785507    23.740866
6898.50    26.387253    29.064106
6899.70    22.584818    32.245724
6900.90    31.510891    33.840893
6902.10    45.807201    23.237637
6903.30    46.703896    15.100479
6904.50    30.957539    25.456829
6905.70    16.201555    29.791561
6906.90    18.021103    22.434311
6908.10    39.153069    18.913343
6909.30    33.052864    21.561489
6910.49    30.157061    30.223385
6911.69    32.347160    32.217140
6912.89    27.830164    35.185108
6914.09    35.792770    38.134003
6915.29    51.664738    20.427267
6916.49    45.563190    12.978199
6917.69    35.035648    17.852314
6918.89    43.071205    21.926985
6920.09    45.725323    21.956211
6921.29    43.745060    37.857449
6922.49    38.098591    54.384884
6923.69    44.072475    44.402012
6924.89    60.639507    29.068764
6926.09    35.049355    28.032864
6927.29    49.165089    22.450901
6928.49    24.836058    34.008892
6929.69    39.330830    24.254520
6930.89    40.352413    23.108402
6932.09    29.954056    27.336735
6933.29    37.794884    18.432217
6934.49    37.245453    16.066526
6935.69    59.998795    14.402767
6936.89    39.169704    29.504066
6938.09    45.447094    23.579254
6939.29    38.697044    32.155487
6940.49    33.066105    34.107121
6941.69    28.591261    34.955925
6942.89    28.116814    30.040648
6944.08    33.543999    17.359951
6945.28    26.882030    29.751593
6946.48    41.077023    29.902538
6947.68    21.001108    41.677628
6948.88    27.577007    51.972664
6950.08    34.649075    45.314545
6951.28    38.533268    30.617586
6952.48    33.186718    23.182905
6953.68    22.069284    25.077894
6954.88    29.627003    22.036926
6956.08    31.676661    14.333341
6957.28    23.187206    28.632217
6958.48    28.522011    19.935350
6959.68    33.518692    19.305498
6960.88    48.900131    16.258165
6962.08    39.783169    19.428637
6963.28    36.406414    19.493872
6964.48    52.334938    13.003649
6965.68    35.675789    22.502516
6966.88    33.800270    17.912064
6968.08    18.309982    20.723724
6969.28    30.854004    34.198833
6970.48    32.114437    27.362963
6971.68    27.466007    30.414444
6972.88    34.542458    26.202312
6974.08    26.618219    20.731993
6975.28    14.138824    36.646622
6976.48    38.332321    32.419067
6977.68    46.039574    22.992504
6978.87    13.480015    35.336922
6980.07    19.757282    27.740177
6981.27    39.713516    24.117941
6982.47    42.650612    19.761961
6983.67    37.931561    18.451998
6984.87    35.005661    17.349712
6986.07    36.083397    11.400716
6987.27    42.584148    19.718519
6988.47    44.020107    21.005533
6989.67    40.602512    20.331051
6990.87    34.912956    17.143867
6992.07    22.228294    19.116302
6993.27    33.707455    14.618206
6994.47    44.935604    14.283761
6995.67    33.998577    19.413265
6996.87    35.840927    16.531612
6998.07    40.174217    19.859440
6999.27    17.019867    25.058704
7000.47    37.888206    13.947690
7001.67    33.061161    16.244541
7002.87    31.630680    19.333210
7004.07    33.426880    18.829464
7005.27    29.201319    19.192242
7006.47    22.869274    18.544676
7007.67    22.081371    20.103935
7008.87    41.568058    21.210464
7010.07    54.022320    13.968264
7011.27    40.499477    26.477896
7012.47    38.832203    17.435513
7013.66    40.966751    18.476646
7014.86    36.981483    23.703985
7016.06    34.463512    19.033979
7017.26    27.827272    15.632401
7018.46    23.556526    17.515957
7019.66    37.305984    16.437105
7020.86    35.963047    13.008699
7022.06    24.151844    19.665039
7023.26    32.120979    16.618303
7024.46    25.006668    19.177418
7025.66    25.962057    21.031441
7026.86    21.616684    19.624720
7028.06    13.847202    17.706053
7029.26    33.353935    12.702750
7030.46    51.078766    12.775123
7031.66    42.671547    19.003483
7032.86    22.535465    13.467264
7034.06    32.870186    14.223707
7035.26    36.177784    16.330563
7036.46    27.607849    19.078850
7037.66    38.188900    19.297398
7038.86    39.849491    17.926584
7040.06    27.484621    17.477644
7041.26    35.527973    16.190315
7042.46    27.128632    16.885132
7043.66    40.962654    12.469128
7044.86    21.565807    26.129398
7046.06     9.950441    22.759975
7047.26    33.820091    16.455530
7048.45    36.069534    14.294437
7049.65    29.561451    13.933927
7050.85    30.302101    17.723991
7052.05     9.216382    19.421949
7053.25    20.256626    22.020676
7054.45    18.127422    21.012403
7055.65    23.274979    23.148680
7056.85    30.009039    26.023720
7058.05    41.119335    18.660370
7059.25    40.538303    11.764023
7060.45    31.583910    15.349699
7061.65    29.144545    17.255981
7062.85    31.614323    12.732832
7064.05    40.930283    15.112397
7065.25    28.113266    17.719629
