#Wavelength     Flux    Sky Spectrum 
#[Angstrom]   [Counts]     [Counts]
4713.18    10.258909     3.983763
4713.78     3.112050     3.724668
4714.38     4.203938     6.027340
4714.98     8.113022     6.430356
4715.58     7.991427     5.028455
4716.18     7.969460     5.985147
4716.79     6.348944     4.834938
4717.39     4.974321     7.931353
4717.99     5.924026     8.196498
4718.59     9.614737     5.054356
4719.19    13.321985     3.911501
4719.79    12.351438     3.932611
4720.39     5.985402     5.419106
4720.99     1.344527     7.047280
4721.59     4.790163     6.033523
4722.19     9.200949     3.542339
4722.79     8.049484     3.001459
4723.40    12.466618     3.060252
4724.00    11.902429     2.360438
4724.60    11.231159     1.737057
4725.20    11.860395     2.476433
4725.80     9.572021     4.245084
4726.40     7.922719     5.032269
4727.00    11.064137     4.040226
4727.60    12.377875     4.890666
4728.20     8.775201     3.766092
4728.80     7.678671     2.203916
4729.40    10.969476     6.249552
4730.01     7.207840     9.938771
4730.61    10.614235     7.583080
4731.21    15.002407     4.292394
4731.81    14.243985     2.036341
4732.41    11.583541     1.194183
4733.01    10.941297     2.997943
4733.61    13.022364     1.261203
4734.21    10.535194     2.132480
4734.81     8.973335     2.988672
4735.41    10.132747     3.649069
4736.02    10.058861     6.074708
4736.62    11.022327     5.116798
4737.22    10.299062     5.036224
4737.82    14.747606     4.316006
4738.42    13.192270     4.480410
4739.02     4.883328     6.362926
4739.62     7.103067     7.000103
4740.22    13.505768     6.326288
4740.82    11.259360     4.381121
4741.42     3.292593     4.505494
4742.02     4.515378     4.563453
4742.63    12.493807     1.410773
4743.23     9.248409    -0.128324
4743.83     6.851741     4.922751
4744.43     8.462949     5.952644
4745.03     8.279946     4.575783
4745.63     7.032910     5.397417
4746.23     9.276678     5.924511
4746.83    10.335554     4.900280
4747.43     4.705475     7.444923
4748.03     2.253518     7.066506
4748.63     3.566370     6.021292
4749.24     5.885349     5.374917
4749.84    11.227455     1.929444
4750.44    15.895716     2.591044
4751.04    13.014109     5.085651
4751.64     8.834192     7.069900
4752.24     8.008926     6.077261
4752.84     9.364555     3.830499
4753.44    10.987879     4.008567
4754.04    11.005031     2.354484
4754.64    11.248345     1.734865
4755.24     9.967843     2.473433
4755.85    11.458401     3.234107
4756.45    14.963869     4.213884
4757.05    12.050340     5.915061
4757.65    14.418803     6.324252
4758.25    14.053694     4.263322
4758.85    12.934937     2.093010
4759.45    14.541164     2.430644
4760.05    14.870946     4.088856
4760.65    12.290253     3.254559
4761.25     9.872665     0.867434
4761.85     6.750773     3.593158
4762.46     6.907903     4.067737
4763.06    11.200292     2.218307
4763.66    12.900101     5.101705
4764.26    10.048937     4.250731
4764.86    12.503716     3.087867
4765.46    11.034422     3.102605
4766.06    11.746664     2.554034
4766.66    12.810568     2.146147
4767.26     4.906258     4.073326
4767.86     8.258802     6.509099
4768.46     9.385777     9.034517
4769.07     9.100320     6.987155
4769.67     8.252784     4.758931
4770.27     8.801470     4.677046
4770.87    12.999599     3.001811
4771.47     8.675261     5.779631
4772.07     9.040178     4.048007
4772.67     9.905779     3.253125
4773.27    11.190962     3.749861
4773.87    10.965206     3.185262
4774.47     4.952372     4.993156
4775.07    14.361662     3.403090
4775.68    14.232707     2.799958
4776.28    11.516211     3.056749
4776.88     9.034178     3.022109
4777.48     5.273286     2.939876
4778.08     9.981560     2.947198
4778.68     5.073673     5.285408
4779.28     5.225366     7.636853
4779.88     8.078485     7.598130
4780.48    12.242764     4.801882
4781.08    15.546413     3.142140
4781.68     8.231762     5.896364
4782.29    10.238400     5.379262
4782.89    10.164031     4.513694
4783.49    12.136944     2.797089
4784.09    10.515831     2.566910
4784.69     1.645174     5.139037
4785.29     6.464978     4.135397
4785.89    10.716181     3.010641
4786.49    10.290081     3.562889
4787.09     7.353504     4.153352
4787.69     6.094707     3.893457
4788.29     6.961875     4.095842
4788.90     5.169266     5.004573
4789.50     4.118237     4.128015
4790.10     3.819683     4.848185
4790.70     4.547276     7.239075
4791.30     4.763880     9.763192
4791.90     2.781077     9.664904
4792.50     1.866177     4.400201
4793.10     5.743932     3.011654
4793.70    13.905903     2.354944
4794.30    14.475768     2.341299
4794.91    10.865896     4.996897
4795.51    11.803915     6.950042
4796.11     7.995882     4.285427
4796.71    12.571434     3.040804
4797.31    13.545757     2.923415
4797.91    11.302835     3.225771
4798.51    10.718838     2.475858
4799.11     8.797191     1.034007
4799.71     8.507778     2.868673
4800.31    15.552238     2.414624
4800.91    14.999283     1.862963
4801.52     4.381368     5.126437
4802.12     5.079834     6.355077
4802.72    18.297760     2.984344
4803.32    12.425695     5.810178
4803.92    15.416566     4.584459
4804.52    11.355127     4.402138
4805.12     9.158915     4.804541
4805.72    13.021054     3.883853
4806.32     9.905972     3.992140
4806.92    10.305481     3.910539
4807.52     5.271750     5.070700
4808.13    10.196772     3.316195
4808.73    16.504276     1.843970
4809.33    14.056417     3.602408
4809.93     9.538292     5.026114
4810.53     3.504821     4.902388
4811.13     1.817104     6.649654
4811.73     2.723913     6.267694
4812.33     5.895725     3.974470
4812.93     7.927392     4.820401
4813.53     5.898412     8.093512
4814.13     6.697080     6.381165
4814.74     9.078583     4.370994
4815.34     6.832911     8.607007
4815.94     7.730263     7.962178
4816.54    13.102817     3.983058
4817.14    15.172420     7.109877
4817.74    15.578647     6.048249
4818.34     7.926216     7.123109
4818.94    11.225389     4.288457
4819.54    11.909958     1.315042
4820.14     8.972415     2.368066
4820.74    13.767361     2.992629
4821.35     6.052454     2.885113
4821.95    15.057164     4.679464
4822.55    16.541109     4.392776
4823.15     8.553002     4.602130
4823.75     7.814657     6.241158
4824.35     9.720210     7.194323
4824.95     3.251805     9.197790
4825.55     7.216333     4.322852
4826.15     9.347724     3.449483
4826.75     6.945712     5.911006
4827.35     5.732121     7.715186
4827.96     3.691973    10.093559
4828.56     1.566720     9.257854
4829.16     9.858515     6.704084
4829.76    11.643853     5.117006
4830.36     9.871611     5.242596
4830.96     9.228148     6.362710
4831.56     7.148808     6.972793
4832.16    11.694313     6.065300
4832.76    11.607325     6.052766
4833.36    15.710549     5.359501
4833.96    14.254173     5.201671
4834.57     8.581321     6.282913
4835.17    11.112588     5.822622
4835.77     9.327553     3.923513
4836.37     7.583570     6.637206
4836.97    10.235931     5.055911
4837.57     6.623095     5.283948
4838.17     8.317492     6.122627
4838.77    19.919487     0.727950
4839.37     7.910132     1.705655
4839.97     9.489960     4.161551
4840.57     9.788802     6.907883
4841.18     8.302117     5.264797
4841.78    12.134396     3.335609
4842.38    12.726929     7.297918
4842.98     8.222094     7.360883
4843.58    10.674370     2.834960
4844.18    18.649971     2.795953
4844.78    16.996168     4.255528
4845.38     8.034376     4.136752
4845.98     6.000482     5.039890
4846.58     7.620771     4.980770
4847.18    11.096143     5.698349
4847.79     7.850327     6.532588
4848.39    10.039334     7.614419
4848.99    12.942548     7.726063
4849.59     7.021382     5.840635
4850.19    12.725122     4.984132
4850.79     8.879325     5.710010
4851.39     6.188761     6.274341
4851.99    10.612490     5.369646
4852.59    10.677330     5.398385
4853.19     7.363048     7.016921
4853.79    17.233784     5.282632
4854.40    16.853207     3.257492
4855.00    11.774928     3.270383
4855.60    11.885286     4.810380
4856.20    14.407382     4.424767
4856.80    12.656521     3.140290
4857.40     8.266960     7.509488
4858.00     8.094311     9.829793
4858.60     6.163332     9.969521
4859.20     5.372362     7.098201
4859.80     7.386034     5.201184
4860.41     9.316758     6.971344
4861.01    13.067529     5.008894
4861.61     9.647590     7.011436
4862.21    16.462606     3.806102
4862.81    17.461239     3.311375
4863.41    10.591601     5.581089
4864.01    12.901230     1.946459
4864.61     8.186647     4.695766
4865.21    11.671469     4.575283
4865.81    11.936191     3.518597
4866.41     6.388226     5.003810
4867.02     5.909146     5.731136
4867.62    12.386766     3.971624
4868.22    15.093090     5.627905
4868.82    12.794058     7.864756
4869.42    11.564751     7.012978
4870.02     9.568216     5.709799
4870.62     8.454786     6.133890
4871.22    12.126716     5.941482
4871.82    12.093582     4.249097
4872.42    12.060081     3.093798
4873.02    11.498939     3.273363
4873.63    13.725481     4.884379
4874.23    15.655975     6.019088
4874.83    11.902689     4.946755
4875.43    13.283308     4.083507
4876.03    17.810751     3.839303
4876.63    15.346668     4.613977
4877.23    18.790277     4.879720
4877.83    22.497955     3.665385
4878.43     8.742681     3.017796
4879.03     7.784300     4.066865
4879.63     7.501280     2.000175
4880.24    15.705760     0.576660
4880.84    15.432281     4.142939
4881.44     7.294488     8.424019
4882.04    17.072168     6.966444
4882.64    15.953506     4.791711
4883.24    12.411366     8.114759
4883.84    12.281419     7.457382
4884.44    13.414976     4.384329
4885.04    15.723102     5.223189
4885.64    17.041351     5.995460
4886.24     8.394264     6.115971
4886.85     7.228792     5.247386
4887.45    11.017414     5.226216
4888.05    11.926556     6.595464
4888.65    10.838290     8.288795
4889.25     7.277028     9.944988
4889.85    -1.024445    10.613668
4890.45    14.263380     5.866817
4891.05    19.161501     4.131660
4891.65     8.360365     6.807332
4892.25     8.370568     6.744792
4892.85    10.065458     4.983077
4893.46     8.144965     6.869804
4894.06    16.091208     4.841721
4894.66    16.258511     2.021174
4895.26     4.383509     4.359846
4895.86     0.206902     8.178042
4896.46     7.221992     6.330588
4897.06    14.286818     2.622965
4897.66    13.671867     2.099181
4898.26    11.241430     4.036804
4898.86    10.791321     5.056385
4899.46     9.969818     5.070736
4900.07    10.024667     6.055027
4900.67    10.475628     3.929538
4901.27    17.773394     1.912431
4901.87    17.293848     2.728633
4902.47    12.315134     4.180038
4903.07    15.847050     5.131336
4903.67     6.930817     8.626471
4904.27     8.261966     8.875270
4904.87    15.004075     6.190996
4905.47    17.326546     7.535422
4906.07    15.345681     9.659369
4906.68    11.952714     5.982927
4907.28     9.900030     7.784120
4907.88    12.079615     5.957395
4908.48    12.953330     1.421120
4909.08    11.568336     2.556926
4909.68    15.547276     5.948488
4910.28    23.017946     3.025246
4910.88    15.375175     5.341428
4911.48    16.056669     6.302131
4912.08    17.252684     5.983640
4912.68    12.545692     5.762421
4913.29    11.045996     4.957389
4913.89    13.663236     5.019187
4914.49    17.925974     4.695415
4915.09    14.454637     6.974786
4915.69     8.634207     7.624684
4916.29    10.703007     3.449697
4916.89    16.069517     2.453153
4917.49    13.861546     9.855320
4918.09    18.672035     3.979818
4918.69    13.557123     3.702856
4919.30     9.202123     8.210358
4919.90    15.361081     6.051132
4920.50    16.946966     2.985439
4921.10    12.341160     5.383066
4921.70     4.843269     7.863268
4922.30     7.370536     7.084027
4922.90    15.999603     3.209208
4923.50    17.514030     2.760360
4924.10    12.114655     8.927143
4924.70    11.397171     7.136046
4925.30    22.043352     2.935786
4925.91    25.726736     1.985886
4926.51    18.349653     3.658496
4927.11    12.450318     5.100747
4927.71    10.882960     5.049774
4928.31    14.842528     4.276661
4928.91    22.314192     3.557662
4929.51    18.985435     5.378395
4930.11     7.494866     8.784965
4930.71     6.302023     8.831156
4931.31    12.711557     5.218735
4931.91     9.762678     6.394777
4932.52    12.289555     6.301280
4933.12    16.383101     4.495941
4933.72    13.476310     3.763439
4934.32    14.963158     2.995710
4934.92    22.791813     4.752188
4935.52    23.426634     4.508748
4936.12    13.559984     3.932985
4936.72    12.349663     6.062964
4937.32    22.642841     6.556812
4937.92    18.628263     2.045239
4938.52    11.996084     6.308812
4939.13    11.192700     9.509599
4939.73    15.286328     7.941700
4940.33    16.441629     5.301929
4940.93    14.081357     4.010298
4941.53    18.594501     4.964702
4942.13    16.249922     4.502204
4942.73     6.619843     7.776398
4943.33     3.581634     9.852121
4943.93     8.722227     7.871875
4944.53     9.039175     8.036064
4945.13     7.773602     5.273883
4945.74    10.784810     6.411969
4946.34    15.002248     5.794087
4946.94    15.792993     4.121161
4947.54    15.080142     4.805583
4948.14    16.161043     1.934766
4948.74    12.616436     6.019095
4949.34    14.054522     5.423606
4949.94    18.688038     5.007578
4950.54    18.410494     8.218421
4951.14    18.076244     5.960167
4951.74    25.937428     4.654255
4952.35    17.621653     7.962303
4952.95    12.413503     8.221721
4953.55    17.810509     5.026973
4954.15    18.669771     3.988255
4954.75    15.911547     4.058950
4955.35    20.280600     3.345351
4955.95    18.627279     7.854910
4956.55    18.240934     9.366773
4957.15    18.905207     5.064426
4957.75    14.068823     2.933806
4958.35    21.374187     1.798377
4958.96    17.344292     4.651454
4959.56    12.139262     6.950459
4960.16    13.945032     9.309744
4960.76    13.357262    12.067382
4961.36     8.934925     9.310923
4961.96    14.739085     5.392073
4962.56    14.163919     6.050699
4963.16    12.128685     6.870249
4963.76    16.112120     5.952107
4964.36    15.742859     7.064607
4964.96     6.845888     8.074605
4965.57     8.784073     6.631113
4966.17    15.957143     5.844403
4966.77    17.969463     5.871047
4967.37    18.512949     4.812335
4967.97    21.286396     4.820557
4968.57    11.151244     8.898912
4969.17     5.667667    10.737943
4969.77    12.041792     8.816786
4970.37    15.243433     6.617515
4970.97     8.934348     5.987707
4971.57    12.192410     6.436030
4972.18    14.094145    10.766527
4972.78    17.970360    11.238889
4973.38    16.545280     8.165283
4973.98     5.999905     8.181599
4974.58     3.867408     9.927666
4975.18     7.328579     9.779218
4975.78    17.294003    11.770935
4976.38    14.311239    12.909648
4976.98     3.205761    11.992605
4977.58    10.976821    11.008203
4978.18    20.393675     4.835335
4978.79    17.830229     5.196408
4979.39    13.587559     8.174718
4979.99    16.595331     5.304465
4980.59    19.931316     2.227347
4981.19    15.562811     9.231026
4981.79    14.314533    10.885791
4982.39    16.490929    12.760578
4982.99    16.265772    10.737925
4983.59    12.204518     6.088123
4984.19     9.047917    10.852295
4984.80    10.698047     9.678249
4985.40    15.650981     9.075506
4986.00    13.091812    10.826045
4986.60     7.597727    10.568904
4987.20    11.137215     7.929548
4987.80    14.450545     6.343667
4988.40    16.607849     4.624856
4989.00    13.169364     7.467128
4989.60    14.157896     9.901764
4990.20    19.769056     7.982337
4990.80    11.565678     9.839607
4991.41    13.988927     9.826985
4992.01    16.923180    11.690075
4992.61    15.360190    12.810992
4993.21    15.124517    10.645762
4993.81    15.998771     9.983965
4994.41    14.244909    10.792302
4995.01     9.034482    11.317735
4995.61     9.915687    13.312390
4996.21    14.443461    13.190871
4996.81    11.908363     8.965554
4997.41     9.653016    10.078359
4998.02    13.449307     7.053540
4998.62    11.167545     7.348043
4999.22    10.939787     8.208363
4999.82    17.982342     5.064375
5000.42    10.795782     8.815939
5001.02    10.952703     6.155046
5001.62    11.547624     5.949364
5002.22    12.044176     8.482341
5002.82    17.978123     6.457206
5003.42    21.193726     3.918354
5004.02    14.946245     7.813453
5004.63    12.241148     9.091830
5005.23    15.964266     7.292435
5005.83    17.791281     5.487744
5006.43    15.036792     3.972108
5007.03    14.284315     7.676536
5007.63     6.072823    11.519362
5008.23     7.953324     8.125845
5008.83    20.565460     3.811464
5009.43    22.942692     7.089628
5010.03    18.236237     8.841566
5010.63    13.712578     9.354177
5011.24    17.131670     7.833772
5011.84    21.162560     7.459495
5012.44    16.545130    10.126703
5013.04    12.785241     9.469842
5013.64    17.767410     5.969158
5014.24    20.856554     4.920820
5014.84    21.903591     4.389236
5015.44    22.557287     3.100013
5016.04    15.626577     5.754244
5016.64    14.342149     6.155371
5017.24    16.076357     6.167122
5017.85    20.259226     5.291958
5018.45    24.005789     4.073358
5019.05    21.138750     5.897680
5019.65    21.393234     5.997357
5020.25    17.589710     6.837724
5020.85    14.843734     8.882547
5021.45    14.283984    10.111739
5022.05    10.875551     9.123764
5022.65    19.507576     5.248342
5023.25    23.545637     1.798977
5023.85    20.105164     3.926258
5024.46    16.225515     7.030402
5025.06    14.978614     5.968596
5025.66    17.169209    11.031429
5026.26    13.833386    11.146661
5026.86    15.577516     7.062434
5027.46    18.116396     6.391407
5028.06    11.994837     9.013891
5028.66    17.270151     8.351726
5029.26    14.694223     7.536852
5029.86    11.824887     9.137641
5030.46    14.600999     9.606757
5031.07    14.988245     8.029328
5031.67    13.689544    11.364887
5032.27    10.192762    11.859572
5032.87    16.158060     6.556745
5033.47    25.659521     2.718749
5034.07    24.840178     4.010464
5034.67    21.498108     2.953754
5035.27    20.032310     5.049616
5035.87    20.223827     5.618608
5036.47    21.542423     3.461747
5037.07    21.873482     5.353486
5037.68    18.404238    12.343222
5038.28    17.585890    11.512016
5038.88    11.120664     9.436296
5039.48    12.217442     8.081203
5040.08    25.334528     4.915651
5040.68    18.243130     7.088939
5041.28     9.058079    12.377626
5041.88    17.334930    10.563025
5042.48    26.821770     4.469398
5043.08    24.053019     3.017231
5043.69    27.409229     4.528902
5044.29    18.570728     7.359582
5044.89    15.919618     7.791473
5045.49    20.726187     8.993195
5046.09    18.810150    10.827435
5046.69    15.878466     6.166866
5047.29    10.270341     9.722578
5047.89    13.805060     8.769791
5048.49    15.266093     6.879405
5049.09     8.017982    10.915295
5049.69    16.462248     4.760159
5050.30    18.754610     5.825411
5050.90    10.916214     9.470596
5051.50     7.504519     8.123222
5052.10    13.246366     6.023376
5052.70    14.113090     9.182600
5053.30    14.282609    12.450860
5053.90    16.250914    12.823241
5054.50    16.620132    11.692582
5055.10    16.123268     9.858558
5055.70    21.890966     5.714006
5056.30    23.461205     4.125065
5056.91    12.712910     7.026481
5057.51     6.894872     8.821425
5058.11    18.231571     5.940855
5058.71    22.547466     5.001843
5059.31    24.744127     4.980007
5059.91    20.345547     5.142945
5060.51    14.616254     6.561672
5061.11    19.000000     8.000000
5061.71    23.219341     5.530814
5062.31    19.133200     5.345428
5062.91    17.725866     9.242112
5063.52    21.511364    12.177199
5064.12    19.176403    10.093939
5064.72    12.546717     7.303717
5065.32    15.237269     7.510722
5065.92    17.865677     7.818155
5066.52    16.137167     8.517772
5067.12    18.922100    11.056409
5067.72    18.452698     7.041175
5068.32    22.898630     6.535426
5068.92    23.574890     5.682272
5069.52    18.858034     1.724579
5070.13    21.036087     3.614367
5070.73    17.830294     7.281727
5071.33    23.005507     8.004998
5071.93    23.398039     8.712893
5072.53    13.607254    11.171434
5073.13    17.515974    11.107230
5073.73    17.010132    10.079821
5074.33    20.143373     6.606737
5074.93    22.107944     7.653374
5075.53    16.877329    13.047048
5076.13    18.880917     9.401857
5076.74    16.533140    11.039797
5077.34    18.469130    10.454123
5077.94    19.887865     6.305037
5078.54    11.894820     7.040908
5079.14    12.458910     8.920473
5079.74    20.092291     7.904299
5080.34    23.363438     6.735647
5080.94    21.907721     7.065062
5081.54    21.146265     7.921029
5082.14    14.596358    10.626554
5082.74    12.702478    10.111800
5083.35    17.533981     8.774077
5083.95    24.045677     8.955499
5084.55    27.182634     8.080194
5085.15    21.899124     7.441739
5085.75    19.340349     5.726281
5086.35    19.975288     5.332595
5086.95    20.190657     7.110546
5087.55    22.859993     7.722915
5088.15    21.314243    10.088870
5088.75    19.054184     7.488225
5089.35    19.235975     5.580586
5089.96    21.088055     8.986519
5090.56    22.662848     5.254682
5091.16    16.501305     8.790598
5091.76    12.005249    13.107376
5092.36    16.649033     9.762892
5092.96    22.021101     5.056602
5093.56    17.438200     7.065696
5094.16    21.391241     8.541728
5094.76    24.359705     7.482230
5095.36    22.610012     5.642028
5095.96    29.872240     3.927957
5096.57    23.212263     6.600623
5097.17    19.684486     9.074507
5097.77    22.453369     6.442094
5098.37    20.835445     3.038316
5098.97    18.990673     7.208933
5099.57    20.359440     8.204321
5100.17    20.713568     5.473810
5100.77    21.931833     3.915314
5101.37    25.988203     4.966092
5101.97    22.877832     5.959557
5102.57    22.385668     5.559692
5103.18    22.338810     4.700094
5103.78    21.213339     5.245722
5104.38    23.207541     7.697193
5104.98    17.119526     9.699506
5105.58    11.238273     9.807158
5106.18    13.957276     8.516896
5106.78    20.171993     8.051932
5107.38    19.903587     9.762787
5107.98    22.430666     9.658457
5108.58    20.940636     8.431846
5109.19    16.705231     7.987250
5109.79    18.901234     8.913251
5110.39    18.982136    10.986883
5110.99    14.820248     9.284502
5111.59    13.305726     8.342698
5112.19    14.952512    10.013389
5112.79    11.669362     8.946887
5113.39     8.775141    10.846895
5113.99    14.695668     8.966187
5114.59    18.343021     7.689801
5115.19    12.988304    12.022732
5115.80    17.793947     9.753878
5116.40    18.533758     8.904378
5117.00    16.660669    11.054461
5117.60    18.457201    11.896393
5118.20    21.621462    10.937166
5118.80    24.908903    13.201979
5119.40    22.803801    13.799064
5120.00    17.282690    10.737857
5120.60    17.323223     7.940105
5121.20    26.330420     8.134139
5121.80    29.359930     6.359365
5122.41    22.836548     7.319709
5123.01    13.068335    10.220106
5123.61     9.716023     9.924953
5124.21    19.369724    12.570833
5124.81    25.996704    11.453487
5125.41    20.840370     8.110125
5126.01    11.437823     8.112183
5126.61    10.252995     9.197880
5127.21    16.194111     6.640497
5127.81    23.612030     7.383150
5128.41    23.899004    10.084312
5129.02    15.366073     7.184310
5129.62    12.414674     4.282979
5130.22    20.581961     4.691517
5130.82    26.861967     6.719888
5131.42    23.613432     8.117662
5132.02    20.523880     8.960774
5132.62    18.535091     8.346972
5133.22    24.553940     4.733881
5133.82    29.893707     5.284913
5134.42    26.883331    12.832744
5135.02    35.149097    11.247105
5135.63    34.424854     9.294067
5136.23    29.191109    10.523277
5136.83    36.195595     9.686025
5137.43    49.016022     5.987622
5138.03    45.791771     9.541670
5138.63    37.667263     9.430753
5139.23    37.696995     4.238186
5139.83    40.994640     5.700680
5140.43    37.158058    11.823367
5141.03    31.884838    12.099457
5141.63    31.695398     9.512121
5142.24    34.012486    10.049695
5142.84    30.479092     9.528458
5143.44    23.114456     6.158847
5144.04    21.758595     5.350198
5144.64    30.296387     7.192865
5145.24    38.910286     6.196860
5145.84    33.443989     4.041232
5146.44    30.525660     5.598200
5147.04    27.788298     8.781793
5147.64    19.871189     8.950365
5148.24    20.533850     8.251381
5148.85    13.827812    13.808062
5149.45    10.318034    14.734061
5150.05    12.753952     9.574708
5150.65     6.745359    10.716187
5151.25     4.322696    11.610647
5151.85     6.954483     9.376838
5152.45    15.004187     8.186995
5153.05    24.933508     9.022915
5153.65    26.216236     4.899164
5154.25    31.857664     4.606009
5154.85    31.665356     6.221262
5155.46    22.468752     4.799072
5156.06    22.778034     3.778580
5156.66    21.119463     6.504008
5157.26    13.944176     8.550674
5157.86    15.128918     7.748751
5158.46    26.898571     6.997108
5159.06    17.359913     8.035065
5159.66    16.606895    10.991820
5160.26    24.188692    11.497332
5160.86    21.913265     8.973603
5161.46    21.272633     9.862748
5162.07    25.007217     8.954659
5162.67    22.054558     7.924467
5163.27    18.730209     7.831954
5163.87    30.027504     6.714674
5164.47    27.340660    10.767564
5165.07    23.308187    10.640396
5165.67    25.162418     6.368663
5166.27    23.194830     6.870951
5166.87    20.354435     8.875834
5167.47    20.620794     7.836909
5168.08    20.381529     5.345979
5168.68    19.069309     6.126619
5169.28    23.304213     9.909575
5169.88    23.052967     6.981882
5170.48    22.512913     5.698287
5171.08    25.252838     9.192773
5171.68    25.224598     7.470794
5172.28    22.840223     5.912369
5172.88    15.164730     9.957178
5173.48    11.690266    12.623951
5174.08    18.764004     6.475898
5174.69    16.271887     3.161511
5175.29    16.028770     7.695771
5175.89    17.848591    10.898087
5176.49    17.040110     6.948866
5177.09    22.822880     5.782485
5177.69    23.382587     6.925313
5178.29    22.160509     8.816366
5178.89    22.840050    10.015669
5179.49    19.422195     9.204760
5180.09    19.586443     8.472493
5180.69    19.188059     7.267831
5181.30    18.279552     7.361845
5181.90    20.233505     9.938496
5182.50    15.359665     7.764939
5183.10    19.693781     4.137401
5183.70    27.866869     2.983459
5184.30    26.032148     4.857310
5184.90    28.991865     8.497229
5185.50    34.156132     8.003283
5186.10    31.738129     7.514401
5186.70    21.685896    12.203279
5187.30    18.393755    16.246910
5187.91    28.441221    12.149364
5188.51    28.961714    11.134496
5189.11    14.795969    14.975252
5189.71    10.852509    10.055071
5190.31    12.982120     7.436537
5190.91    20.288425     9.060556
5191.51    24.754910    11.333591
5192.11    18.619003    12.063963
5192.71    18.528687    10.501742
5193.31    24.979979     6.621887
5193.91    29.385944     5.405527
5194.52    28.084961     8.021072
5195.12    27.180794     4.764023
5195.72    22.113783     5.762164
5196.32    19.342083     9.760097
5196.92    26.006826     8.998152
5197.52    32.240269     6.939230
5198.12    26.816883     8.821776
5198.72    21.489889     9.391356
5199.32    24.080481     5.835353
5199.92    22.074055     5.512864
5200.52    18.144249     8.038319
5201.13    19.821091     8.775493
5201.73    24.135487     6.775800
5202.33    22.838242     7.164655
5202.93    26.818707    13.354246
5203.53    28.866179    13.157691
5204.13    25.433821     7.531621
5204.73    23.257814     8.045762
5205.33    21.168852     5.975859
5205.93    18.497896     8.784151
5206.53    16.877029    13.165489
5207.13    17.840189    10.210124
5207.74    19.953398     9.975100
5208.34    22.524845     8.819753
5208.94    22.444054     6.694088
5209.54    20.913731     6.978840
5210.14    26.677631     7.106620
5210.74    31.458687     6.662718
5211.34    35.987679     5.555063
5211.94    37.968143     5.004686
5212.54    24.225653     6.819468
5213.14    16.258638     5.727782
5213.74    20.279743     3.454308
5214.35    23.910559     4.093741
5214.95    17.000017     7.038249
5215.55    12.651846    10.440699
5216.15    13.716086    12.700768
5216.75    13.784148    12.932393
5217.35    11.874861    11.963291
5217.95    22.255886    13.027622
5218.55    28.260904    11.644265
5219.15    21.041965     9.017652
5219.75    18.670607    11.024952
5220.35    29.977526     8.405940
5220.96    28.808117    10.588832
5221.56    17.422920    14.772913
5222.16    20.981586     9.300287
5222.76    15.239679    12.605906
5223.36    19.101725    11.420279
5223.96    29.428446     4.313470
5224.56    21.426008     5.631208
5225.16    13.521819     7.686207
5225.76     8.319555    11.493502
5226.36    10.938795    13.851227
5226.96    24.696308     9.575160
5227.57    31.323399     5.484442
5228.17    28.734329     5.930982
5228.77    25.965031    10.144465
5229.37    27.933943    12.230392
5229.97    26.654854     6.460887
5230.57    26.300684     6.774021
5231.17    28.669827    11.763174
5231.77    27.453726    11.119041
5232.37    17.879339     9.480307
5232.97    22.894802     8.441241
5233.58    29.486843     7.870196
5234.18    18.469641     7.962584
5234.78    13.654212     9.753447
5235.38    15.942778    13.437847
5235.98    22.279057    12.789631
5236.58    27.966908     8.018424
5237.18    25.125492    11.723570
5237.78    24.127537    12.178850
5238.38    22.698338     7.646450
5238.98    17.055380     5.978876
5239.58    17.738247     9.048876
5240.19    21.341549    10.296812
5240.79    23.318174    10.190961
5241.39    23.005713    11.001889
5241.99    22.693861     9.569046
5242.59    24.271204     8.547668
5243.19    24.647461     9.517658
5243.79    23.000244    10.999207
5244.39    25.325773    10.896938
5244.99    30.458231    11.853846
5245.59    26.973545    11.225746
5246.19    15.986655     6.989520
5246.80    17.561640     4.095337
5247.40    20.185877     5.372449
5248.00    24.239952     9.476975
5248.60    27.984953    13.007380
5249.20    16.896667    13.083006
5249.80    14.848869     8.318335
5250.40    24.469082     4.311532
5251.00    31.001934     6.004869
5251.60    27.861830    10.116485
5252.20    23.103521    11.122576
5252.80    20.116611     9.380171
5253.41    20.980173     8.002947
5254.01    28.326584     8.228171
5254.61    24.374176    11.431859
5255.21    14.622516    12.673399
5255.81    14.928774     9.043091
5256.41    23.465176     6.780308
5257.01    22.798689     8.871432
5257.61    16.637802    11.400938
5258.21    15.982581    11.013117
5258.81    18.021751    10.500199
5259.41    25.065760     8.505538
5260.02    24.944481     8.757512
5260.62    15.133910    12.893725
5261.22    19.268326    13.573153
5261.82    23.862513    11.681397
5262.42    22.262913     9.358871
5263.02    18.281776     8.010074
5263.62    13.528042     8.674631
5264.22    19.133125     9.082500
5264.82    28.846481     9.067064
5265.42    30.136599     9.067508
5266.02    27.851465     7.097598
5266.63    30.134129     4.820585
5267.23    27.810991     7.461271
5267.83    15.625116    13.811982
5268.43    16.568010    11.036998
5269.03    20.507429     8.120407
5269.63    21.255486     7.648563
5270.23    22.122469     5.929347
5270.83    19.064104     9.045743
5271.43    15.355577    12.217070
5272.03    21.692488    10.077871
5272.63    34.238445     5.914865
5273.24    19.892857    10.695475
5273.84    14.902340    12.422606
5274.44    27.358957     8.638117
5275.04    25.526838     9.565736
5275.64    16.306946    11.741819
5276.24    18.510061    11.411569
5276.84    27.479578    11.306331
5277.44    24.668259    14.170285
5278.04    24.374319     9.721943
5278.64    24.184753     7.167811
5279.24    18.193117    11.407846
5279.85    11.883413    13.213242
5280.45    17.601009    10.991921
5281.05    22.298450     7.974487
5281.65    20.028217     8.159906
5282.25    22.983511    11.615906
5282.85    19.476702    10.569658
5283.45    20.212923     9.058966
5284.05    25.934210    11.033440
5284.65    14.923627    10.804809
5285.25    13.062578     7.595614
5285.85    21.699526     6.113853
5286.46    26.937752     7.975975
5287.06    27.324200     7.922006
5287.66    22.229944     9.121329
5288.26    19.002724    11.600998
5288.86    24.420563    12.090078
5289.46    32.342022     9.418393
5290.06    29.232058     6.546492
5290.66    18.978451     7.918829
5291.26    17.262505    11.978007
5291.86    27.634502     8.225667
5292.47    29.738152     5.477192
5293.07    23.321243     7.330634
5293.67    24.442877     8.047451
5294.27    27.068794     7.346611
5294.87    25.638514     7.025032
5295.47    22.914339     8.238196
5296.07    24.556587     9.345607
5296.67    25.655174     5.866780
5297.27    26.557892     4.121105
5297.87    26.890360     6.051877
5298.47    22.809160     5.182508
5299.08    15.986477     5.871441
5299.68    12.698918     9.599099
5300.28    18.127899    11.987079
5300.88    29.129417     8.637365
5301.48    28.844383     9.594282
5302.08    18.857460    14.223775
5302.68    12.106550    16.000229
5303.28    13.664277    14.466053
5303.88    16.172884    10.209433
5304.48    20.847265     6.373247
5305.08    27.914810     5.890146
5305.69    22.747789     7.358756
5306.29    20.295460     8.344085
5306.89    21.545691     9.304244
5307.49    16.953457    11.002267
5308.09    21.515621     9.979416
5308.69    14.238194    14.353582
5309.29    -0.389341    21.237419
5309.89    10.434077    17.594635
5310.49    25.996765    12.293317
5311.09    24.679766    11.097536
5311.69    18.217913    10.906637
5312.30    34.374310     6.123552
5312.90    30.072126     5.172369
5313.50    23.326012     7.735541
5314.10    32.161507     8.976926
5314.70    15.494583     9.473630
5315.30    16.539110    11.346365
5315.90    28.560698    11.518109
5316.50    19.125008     8.211030
5317.10    15.357795     8.805477
5317.70    16.580589    11.034170
5318.30    19.975681    12.112645
5318.91    24.641651    12.781098
5319.51    14.633635    14.056911
5320.11     6.335207    13.028803
5320.71     8.065595    10.990398
5321.31     8.477598    12.651649
5321.91    18.480988    12.544415
5322.51    27.848145    12.285888
5323.11    27.007750    14.986120
5323.71    25.293461    17.477615
5324.31    20.502438    13.628784
5324.91    20.284332     7.966158
5325.52    27.690811     7.805387
5326.12    25.456308    10.434777
5326.72    21.656300    10.367026
5327.32    25.281389     9.003991
5327.92    33.183136    10.024801
5328.52    34.279945     8.284517
5329.12    37.799969     6.724312
5329.72    38.039276     9.449153
5330.32    20.705969    14.522048
5330.92    22.055744    13.156997
5331.52    34.607128    10.891472
5332.13    34.026279    12.994653
5332.73    21.710793    13.427678
5333.33    25.152966    11.796598
5333.93    33.356667     9.334793
5334.53    25.861286     7.955819
5335.13    20.505405     9.559708
5335.73    20.439621     9.248445
5336.33    23.766735     6.653991
5336.93    28.406437     7.163236
5337.53    29.735352    13.282993
5338.13    30.835810    15.943027
5338.74    34.251835    11.680014
5339.34    36.527637     8.764999
5339.94    31.817265    11.514649
5340.54    23.302467    12.193436
5341.14    19.908962     7.135029
5341.74    26.107191     6.395175
5342.34    27.258301     7.763934
5342.94    25.178961     7.842252
5343.54    27.978027     6.984245
5344.14    24.046934     7.910873
5344.74    16.527935     7.151986
5345.35    16.864353     7.467090
5345.95    28.181835    13.378656
5346.55    28.808662    11.620788
5347.15    21.200817     9.000332
5347.75    15.974429    12.017392
5348.35    15.216056    12.426103
5348.95    23.131138    11.132023
5349.55    32.986008     9.555923
5350.15    33.648033     8.100190
5350.75    24.555794     7.751595
5351.35    23.854254     8.528904
5351.96    31.922308    10.344645
5352.56    34.018036    12.649295
5353.16    33.934544    13.016671
5353.76    34.013287     8.439597
5354.36    29.674965     5.096059
5354.96    16.950226    12.909861
5355.56    13.731024    14.625263
5356.16    17.951382    11.653666
5356.76    21.425156    12.083821
5357.36    30.019512     9.509553
5357.97    29.928173    10.499382
5358.57    23.433081    14.360023
5359.17    23.896484    13.573010
5359.77    22.279358    10.906039
5360.37    18.516083    12.570503
5360.97    15.920560    15.991177
5361.57    14.878567    11.354492
5362.17    16.488028     5.198709
5362.77    25.892700     4.712200
5363.37    36.105911     9.630610
5363.97    24.457279    12.246123
5364.58    15.572565    14.177575
5365.18    17.035965    14.776440
5365.78    15.176034    11.043049
5366.38    16.624840     6.738287
5366.98    20.591265     6.821965
5367.58    25.184155    10.059883
5368.18    31.063778     9.706955
5368.78    30.721523     7.880445
5369.38    23.756170    10.542442
5369.98    18.840588    15.965036
5370.58    25.230755    11.414215
5371.19    27.398882     9.229047
5371.79    22.521809    12.184359
5372.39    23.053486    11.212843
5372.99    27.781073    11.520946
5373.59    27.890123    11.729703
5374.19    25.007708     9.993842
5374.79    30.464121     9.140672
5375.39    26.936121     8.714412
5375.99    25.877659     7.632402
5376.59    37.671219     6.114097
5377.19    28.800301     6.205711
5377.80    20.347298     8.031784
5378.40    25.659472     8.909833
5379.00    30.304508     6.582816
5379.60    31.330639     5.592478
5380.20    26.650387     6.242843
5380.80    21.928650     6.965609
5381.40    29.506363     8.147858
5382.00    34.519207    10.520542
5382.60    32.562630    12.025332
5383.20    31.152285    10.441579
5383.80    30.888926     8.167377
5384.41    33.708256     6.202499
5385.01    35.922234     4.969624
5385.61    31.217018     4.899069
5386.21    30.238518     5.369855
5386.81    30.447458     8.219579
5387.41    27.910213    11.968688
5388.01    32.427567     9.247054
5388.61    35.757702     8.705018
5389.21    32.287193    11.032931
5389.81    26.215668     9.237354
5390.41    23.189482    10.095689
5391.02    23.145657    10.609336
5391.62    24.918041     8.045635
5392.22    29.585346     7.368603
5392.82    35.540913     5.730253
5393.42    40.987968     5.434705
5394.02    38.749672    10.750221
5394.62    16.944641    16.728859
5395.22    17.356098    14.598533
5395.82    39.380634     7.862056
5396.42    31.202106     9.267138
5397.02    30.364077     9.598596
5397.63    37.873920     9.474116
5398.23    33.010475    11.984961
5398.83    24.362041     9.473922
5399.43    22.156431     7.940619
5400.03    23.951807     8.999740
5400.63    21.357336     8.005089
5401.23    23.086063     9.263342
5401.83    33.229118     9.504988
5402.43    40.258881     7.929693
5403.03    25.950455    11.485365
5403.63    19.301104     9.549634
5404.24    27.388447     4.777004
5404.84    31.940510     7.388884
5405.44    29.240063     8.305282
5406.04    19.506491     8.274502
5406.64    12.000180    10.001146
5407.24    19.399326    10.647156
5407.84    25.523626     7.974237
5408.44    22.918356     7.698780
5409.04    18.908106    12.678320
5409.64    23.724426    10.560306
5410.24    30.100931     7.193590
5410.85    27.588871     9.188120
5411.45    18.575956    12.411246
5412.05    28.356140     8.124031
5412.65    37.672619     5.698746
5413.25    27.607777    12.451557
5413.85    31.146667    12.161594
5414.45    29.566103     8.461801
5415.05    22.114868     6.924882
5415.65    30.779533     7.253615
5416.25    27.011747    10.703332
5416.86    23.195700    11.337266
5417.46    32.674732     8.836668
5418.06    28.547318    14.459881
5418.66    27.267057    13.734760
5419.26    30.820976     9.109047
5419.86    24.909094    14.992672
5420.46    26.592291    13.951303
5421.06    34.469345     8.786654
5421.66    35.379055     9.757908
5422.26    24.243240    15.033298
5422.86    22.511209    14.308840
5423.47    26.805923     9.588996
5424.07    20.681389    10.361354
5424.67    23.669458    12.779544
5425.27    31.000673    12.282476
5425.87    32.041523    10.011613
5426.47    29.808918    11.504134
5427.07    28.918501    11.247445
5427.67    33.292847     8.620673
5428.27    39.328869     7.885420
5428.87    31.910269     8.802402
5429.47    29.749575     8.574949
5430.08    36.030659     7.008062
5430.68    25.157166     7.818326
5431.28    28.965237    11.188307
5431.88    42.171429    11.340438
5432.48    37.676609     5.703457
5433.08    31.086964     5.723731
5433.68    28.249182     9.322587
5434.28    30.014410    11.001179
5434.88    37.073101    10.838398
5435.48    39.232422    11.907258
5436.08    39.663895    11.406621
5436.69    42.065048     7.341122
5437.29    30.242754     8.399070
5437.89    26.924072    10.240011
5438.49    36.013382    10.010607
5439.09    29.662767    11.971901
5439.69    35.673485    10.195515
5440.29    41.782337     9.734426
5440.89    27.280081    15.540070
5441.49    32.033897    13.567641
5442.09    37.864956    10.690578
5442.69    31.976810    13.028956
5443.30    35.952637    14.195589
5443.90    38.636944    13.048958
5444.50    36.600060    10.366047
5445.10    35.290031     8.727732
5445.70    33.674892    11.852676
5446.30    35.402122     9.560176
5446.90    36.972351     5.026229
5447.50    28.930437    15.125680
5448.10    24.893761    16.089804
5448.70    29.222322     7.752637
5449.30    35.156902     6.612985
5449.91    37.648819     9.045393
5450.51    38.347122     9.907681
5451.11    40.989166     9.000005
5451.71    43.893433    10.266008
5452.31    30.416061    11.786613
5452.91    19.257668    13.436115
5453.51    31.944592    15.158214
5454.11    32.955036    12.682871
5454.71    28.185888    13.336413
5455.31    31.887224    17.973469
5455.91    38.889763    15.214970
5456.52    45.668076    10.890217
5457.12    44.838448    13.107880
5457.72    33.445137    22.818960
5458.32    26.665625    29.837389
5458.92    28.433664    30.597914
5459.52    33.820461    27.162708
5460.12    35.949944    24.293459
5460.72    32.074905    28.224680
5461.32    24.986881    31.775511
5461.92    22.545877    25.484062
5462.52    32.530197    22.858704
5463.13    33.061333    24.578245
5463.73    20.210144    23.338423
5464.33    29.209064    16.150381
5464.93    39.593689    14.778215
5465.53    36.038956    19.394789
5466.13    26.838696    20.098639
5466.73    23.814228    20.099344
5467.33    25.470705    19.660065
5467.93    26.009411    17.311771
5468.53    25.540285    14.086394
5469.13    24.179186    12.796570
5469.74    19.312540    15.390911
5470.34    12.323051    19.334362
5470.94    21.979645    14.277842
5471.54    38.517624     6.656874
5472.14    41.030365     6.616341
5472.74    29.325182    10.132065
5473.34    29.102198    13.012755
5473.94    37.989868    12.917253
5474.54    29.051544     9.625429
5475.14    30.681831     5.346095
5475.74    33.584522     5.962932
5476.35    22.965107    11.637493
5476.95    35.020611     9.610288
5477.55    42.009739     8.964907
5478.15    30.995049    13.000804
5478.75    34.867664    10.249622
5479.35    43.605251     9.242096
5479.95    41.267338    12.680964
5480.55    27.912273    14.462439
5481.15    26.881720     9.998708
5481.75    34.701691     6.727522
5482.36    34.487965    10.685370
5482.96    19.652683    16.817284
5483.56    19.773901    16.895735
5484.16    33.095642    12.586663
5484.76    33.777145    11.737238
5485.36    32.512890    12.754713
5485.96    37.128933    10.789768
5486.56    41.404396     7.787425
5487.16    31.286976    13.812827
5487.76    27.952551    14.483410
5488.36    31.791914    10.031018
5488.97    22.316004    15.913782
5489.57    21.938704    18.718254
5490.17    32.747318    13.056691
5490.77    37.150337     6.278405
5491.37    22.884232     9.366820
5491.97    14.344968    14.423815
5492.57    24.082666    12.969513
5493.17    34.086498     7.754116
5493.77    35.947998     8.836308
5494.37    33.839813    11.997984
5494.97    33.601021     9.244614
5495.58    28.794384    11.538362
5496.18    26.068020    18.519648
5496.78    28.905663    21.225208
5497.38    28.572281    13.195536
5497.98    31.298405     9.990475
5498.58    33.745022    11.832544
5499.18    27.438225     7.458573
5499.78    26.065876    10.088304
5500.38    24.575872    16.125772
5500.98    19.650938    16.265984
5501.58    29.080084    13.946863
5502.19    33.579460    12.795937
5502.79    29.013191    12.994562
5503.39    34.680882    12.285501
5503.99    33.533340    11.842460
5504.59    30.515339    12.056744
5505.19    37.950272    11.490957
5505.79    37.692791     8.060343
5506.39    32.215107     5.592779
5506.99    30.911991     7.791327
5507.59    34.019253    12.854545
5508.19    31.227303    13.087755
5508.80    28.415409     8.460455
5509.40    38.570377     6.398867
5510.00    46.612804    10.753384
5510.60    38.564823    15.990144
5511.20    23.334122    15.481199
5511.80    32.868179    10.719511
5512.40    37.680180     9.257921
5513.00    27.845486    12.071663
5513.60    31.730833    12.854055
5514.20    38.667576    13.711954
5514.80    38.176113    15.264420
5515.41    33.716820    14.801165
5516.01    40.079975     9.447754
5516.61    43.010025     7.410144
5517.21    33.534710    11.789978
5517.81    27.958321    13.105596
5518.41    26.370676    13.126157
5519.01    26.012768    12.870412
5519.61    27.576109    11.616196
5520.21    33.683960    14.995191
5520.81    38.569035    19.965313
5521.41    35.926666    19.685543
5522.02    29.720768    13.629097
5522.62    31.454214    13.559910
5523.22    41.035385    17.995975
5523.82    45.300285    11.594933
5524.42    46.816364     8.800215
5525.02    43.875130    12.548133
5525.62    35.774666    13.466123
5526.22    37.769852    10.396153
5526.82    38.720707     7.392067
5527.42    31.334074     7.808436
5528.02    33.287941    10.449129
5528.63    34.172813    13.140779
5529.23    28.694006    12.831774
5529.83    25.840244     9.147850
5530.43    27.392344    11.925594
5531.03    25.776405    17.855892
5531.63    20.347502    17.101044
5532.23    31.042374    10.243171
5532.83    37.800972     9.189860
5533.43    30.224922    14.899492
5534.03    30.981281    12.343817
5534.63    27.762751    11.962881
5535.24    25.771301    15.064268
5535.84    39.644562    13.221974
5536.44    37.547588    14.661757
5537.04    24.282572    15.423333
5537.64    21.434479    10.584831
5538.24    27.898149     9.972437
5538.84    35.965988    13.831192
5539.44    40.955753    16.017231
5540.04    42.339005    11.688313
5540.64    33.770233     9.818471
5541.25    28.629372    11.002661
5541.85    38.632679    10.466425
5542.45    29.404127    14.657883
5543.05    16.573402    18.276888
5543.65    25.054314    15.508092
5544.25    38.735809    12.701374
5544.85    37.772835    14.579714
5545.45    25.858526    19.056044
5546.05    25.449656    19.605700
5546.65    28.442945    17.951542
5547.25    29.004164    16.970648
5547.86    29.480333    16.619715
5548.46    32.505363    12.715952
5549.06    33.778255    11.629559
5549.66    31.992332    14.999930
5550.26    33.630390    11.463211
5550.86    30.010349    11.271619
5551.46    28.359440    14.993831
5552.06    43.954086    10.268858
5552.66    41.746929     6.320395
5553.26    27.339321     8.985166
5553.86    27.853775    15.073708
5554.47    31.311453    16.433311
5555.07    25.621647    16.334042
5555.67    17.741787    17.973078
5556.27    29.175245    16.723005
5556.87    29.125013    16.182808
5557.47    21.343643    18.116425
5558.07    40.072861    18.929279
5558.67    41.991146    14.627129
5559.27    34.255497    10.876169
5559.87    43.908829    12.859725
5560.47    39.615520    11.311872
5561.08    27.806646    12.569720
5561.68    29.047310    17.948555
5562.28    45.479092    13.825569
5562.88    49.676964    13.461115
5563.48    40.730713    20.333632
5564.08    42.424606    21.576780
5564.68    40.509689    15.366203
5565.28    35.531818    10.973165
5565.88    36.651970    15.688757
5566.48    36.390999    19.675888
5567.08    30.056862    17.409477
5567.69    24.749401    12.204828
5568.29    33.691338    13.430737
5568.89    32.138786    18.607771
5569.49    26.456484    20.930695
5570.09    44.947227    17.142998
5570.69    44.139690    16.157539
5571.29    37.048073    18.351416
5571.89    48.834080    23.069969
5572.49    28.747852    42.741821
5573.09    14.947308    72.410568
5573.69    35.490639    110.534088
5574.30    42.832245    169.101746
5574.90    59.636200    229.729599
5575.50    82.385818    282.549561
5576.10    73.582062    330.799927
5576.70    63.328133    356.016205
5577.30    54.049847    363.063202
5577.90    35.420601    358.721069
5578.50    35.742329    313.801849
5579.10    47.300869    258.421356
5579.70    51.181656    221.719559
5580.30    44.483551    185.667130
5580.91    26.391342    163.936752
5581.51    15.136396    145.985077
5582.11    30.931305    101.788910
5582.71    30.378099    72.912155
5583.31    19.873137    57.271690
5583.91    29.758480    30.146925
5584.51    31.729975    20.660091
5585.11    31.081522    21.666668
5585.71    36.164478    18.937466
5586.31    28.582750    22.968172
5586.91    26.603209    24.233391
5587.52    35.031876    18.969141
5588.12    32.944340    17.338118
5588.72    26.261343    19.665503
5589.32    21.487352    22.183842
5589.92    20.778391    21.612814
5590.52    27.771748    19.095312
5591.12    35.442429    16.286665
5591.72    35.602112    14.938842
5592.32    30.562368    16.162903
5592.92    29.921255    14.683982
5593.52    33.963570    13.863598
5594.13    31.833677    23.324486
5594.73    28.743553    20.607283
5595.33    30.484076     9.442101
5595.93    35.568584    12.234439
5596.53    33.643394    15.481133
5597.13    33.045692    14.756714
5597.73    39.803585    14.059574
5598.33    34.084358    13.985518
5598.93    26.349667    13.931309
5599.53    25.186533    13.961451
5600.13    20.671753    15.167346
5600.74    25.443808    16.874533
5601.34    31.771416    20.364077
5601.94    22.532963    25.762440
5602.54    35.010159    22.504368
5603.14    50.084629    14.932453
5603.74    34.112251    13.627424
5604.34    25.109779    15.646505
5604.94    34.710709    15.276798
5605.54    48.390316    11.364105
5606.14    44.768536    10.381520
5606.75    32.624092    17.174885
5607.35    28.060188    24.002335
5607.95    37.433723    17.465246
5608.55    45.836960    11.784545
5609.15    46.855526    13.534266
5609.75    45.204044    17.381147
5610.35    45.474670    17.728868
5610.95    43.948509    15.303713
5611.55    37.903328    13.929601
5612.15    34.386925    15.256951
5612.75    36.615284    13.423849
5613.36    40.932442     9.970430
5613.96    40.077869    14.539867
5614.56    38.412651    14.441011
5615.16    37.916992     8.645294
5615.76    36.469933     9.159908
5616.36    35.569515    15.692143
5616.96    36.314915    17.053009
5617.56    37.870628     9.544871
5618.16    36.872383    13.604511
5618.76    29.679462    22.159210
5619.36    20.424168    23.205696
5619.97    21.063007    20.078186
5620.57    23.608521    19.230751
5621.17    24.054850    18.893349
5621.77    27.967350    12.689222
5622.37    32.469887    11.570000
5622.97    33.926510    14.044719
5623.57    32.744186    12.183287
5624.17    35.812271    13.589390
5624.77    39.510105    14.645264
5625.37    35.653408    12.029985
5625.97    23.369720    14.758551
5626.58    24.975821    17.298000
5627.18    37.898476    15.114109
5627.78    29.860546    13.007646
5628.38    31.406036    13.873383
5628.98    45.701687    13.714080
5629.58    44.199970     8.534407
5630.18    34.707397    10.974007
5630.78    28.357769    16.500505
5631.38    31.581366    14.717976
5631.98    44.509254    12.434315
5632.58    49.101734     9.956448
5633.19    39.753052     7.864702
5633.79    38.100372    11.994305
5634.39    33.074780    16.456982
5634.99    21.956728    18.009869
5635.59    21.611803    19.487379
5636.19    31.274521    16.676456
5636.79    38.044861    14.154126
5637.39    32.121933    18.296146
5637.99    28.177645    17.419168
5638.59    29.454226    15.035972
5639.19    30.263624    17.037920
5639.80    28.183861    13.905322
5640.40    33.793877    10.329558
5641.00    44.745655    10.936739
5641.60    40.187263    11.350588
5642.20    37.443951    13.395589
5642.80    38.794857    17.138878
5643.40    29.373264    19.085747
5644.00    32.981834    17.860725
5644.60    42.366051    14.390456
5645.20    38.185085    11.838572
5645.80    43.600922    14.370891
5646.41    48.554340    15.504433
5647.01    38.098843    12.082796
5647.61    29.248058    14.766243
5648.21    40.875717    14.644846
5648.81    58.928329     9.114120
5649.41    44.278076    10.694948
5650.01    35.187782    11.844542
5650.61    42.211494    11.099939
5651.21    39.146023    14.375535
5651.81    38.935535    13.914113
5652.41    34.754665    13.571878
5653.02    21.518089    18.628258
5653.62    36.957230    15.969916
5654.22    49.516380    13.318817
5654.82    34.387527    17.664141
5655.42    35.373791    16.624472
5656.02    35.634094    14.854489
5656.62    26.093729    15.990145
5657.22    30.023123    15.517593
5657.82    30.183830    18.075424
5658.42    22.494259    23.387939
5659.02    22.753170    25.032547
5659.63    34.967487    20.076080
5660.23    36.733902    15.858008
5660.83    17.899328    18.507092
5661.43    24.169516    18.467911
5662.03    38.208187    18.667425
5662.63    33.238705    22.601730
5663.23    24.808090    23.524742
5663.83    24.001968    20.101479
5664.43    29.911337    16.033550
5665.03    32.967026    16.257914
5665.64    32.384224    17.606516
5666.24    33.394794    19.259336
5666.84    39.113365    21.539036
5667.44    37.922630    17.288715
5668.04    30.448738    14.415811
5668.64    25.376362    21.395834
5669.24    25.737642    25.155149
5669.84    25.151138    22.813589
5670.44    25.743856    18.450653
5671.04    42.928841    16.386295
5671.64    51.186024    18.361633
5672.25    41.134056    21.968294
5672.85    35.631630    22.163479
5673.45    34.956650    18.840466
5674.05    39.918503    13.429078
5674.65    48.406868     9.428225
5675.25    35.216072    14.507987
5675.85    25.014511    18.769444
5676.45    43.636383    13.496509
5677.05    46.261879    16.136599
5677.65    36.387566    18.392601
5678.25    32.313301    13.261845
5678.86    31.075596    16.066988
5679.46    38.900986    22.376606
5680.06    47.046638    24.991875
5680.66    35.824528    23.587772
5681.26    34.580677    19.897551
5681.86    43.171341    18.063843
5682.46    39.313251    20.534937
5683.06    48.516045    19.953968
5683.66    56.139427    17.894432
5684.26    38.092571    20.578917
5684.86    23.335167    27.191975
5685.47    27.473742    29.741783
5686.07    40.433754    26.240824
5686.67    35.461536    27.640135
5687.27    34.139530    31.258474
5687.87    42.947426    31.100641
5688.47    35.744148    26.376427
5689.07    29.121687    25.573280
5689.67    31.205309    26.862638
5690.27    33.655163    21.823433
5690.87    38.112556    18.746267
5691.47    39.547363    17.549726
5692.08    35.655540    14.354403
5692.68    41.872833    15.376147
5693.28    44.934093    20.769434
5693.88    37.207817    24.987034
5694.48    43.507378    21.778107
5695.08    47.173416    18.337204
5695.68    39.272705    18.975344
5696.28    38.987579    18.177677
5696.88    39.668640    15.696479
5697.48    36.855003    17.361399
5698.08    34.812920    26.470900
5698.69    32.303230    25.013134
5699.29    28.263054    18.782362
5699.89    26.893728    22.378389
5700.49    39.747257    20.728731
5701.09    49.387497    16.440893
5701.69    41.542744    17.606771
5702.29    36.517784    19.243565
5702.89    31.228985    20.486351
5703.49    27.498007    20.224941
5704.09    40.748623    15.953582
5704.69    38.855316    16.397585
5705.30    28.134336    18.940601
5705.90    47.948925    12.209725
5706.50    49.890919    10.767722
5707.10    32.544445    18.060818
5707.70    32.685783    23.412960
5708.30    39.776993    17.994623
5708.90    41.518539    11.422852
5709.50    35.468197    14.158663
5710.10    30.489206    16.623434
5710.70    32.837505    17.117746
5711.30    41.911110    15.532253
5711.91    49.501545     9.084528
5712.51    47.630302     7.974084
5713.11    38.090252    13.950269
5713.71    33.099766    15.561793
5714.31    41.107960    10.684693
5714.91    48.872021     7.100172
5715.51    37.392757    12.743858
5716.11    25.451729    16.937424
5716.71    27.910706    15.366631
5717.31    39.471970    12.722519
5717.91    32.509026    16.762123
5718.52    27.150627    20.016802
5719.12    38.973419    16.496519
5719.72    37.507530    15.081474
5720.32    36.538841    14.578197
5720.92    43.855476    13.051128
5721.52    39.540821    13.406896
5722.12    28.454311    17.575394
5722.72    26.400856    20.989187
5723.32    40.622810    17.458946
5723.92    41.180576    15.473166
5724.52    32.554161    14.550328
5725.13    39.135448    10.433000
5725.73    51.760662    12.265436
5726.33    51.738705    20.203926
5726.93    36.849800    25.435890
5727.53    36.132900    18.052050
5728.13    42.624622    12.974915
5728.73    40.727184    19.337626
5729.33    30.946365    23.244209
5729.93    26.697744    21.824062
5730.53    30.002531    18.998356
5731.14    29.167608    19.451483
5731.74    26.989048    20.217499
5732.34    27.153975    19.982937
5732.94    29.434845    20.440147
5733.54    30.477438    22.398056
5734.14    36.022110    21.098452
5734.74    46.515591    15.414633
5735.34    40.607140    17.776075
5735.94    33.947002    19.137732
5736.54    40.355705    12.628845
5737.14    39.723392    12.494955
5737.75    38.413044    14.071108
5738.35    40.109287    11.224175
5738.95    36.063290     7.357145
5739.55    45.867313     8.509430
5740.15    58.971626    13.150198
5740.75    44.522583    14.568829
5741.35    35.114353    16.263571
5741.95    39.757595    16.722712
5742.55    40.894814    13.381814
5743.15    31.136366    14.540493
5743.75    27.053587    15.534069
5744.36    38.384342    11.422098
5744.96    39.201065    12.857573
5745.56    35.588787    19.355003
5746.16    36.217533    23.160532
5746.76    32.031830    17.688856
5747.36    35.559040    12.863575
5747.96    44.957272    13.972952
5748.56    40.902782    15.049999
5749.16    40.899883    14.496692
5749.76    52.058395    12.855453
5750.36    59.331757    12.162727
5750.97    40.847969    16.068941
5751.57    23.771372    18.880913
5752.17    37.794785    15.467492
5752.77    39.829323    16.628702
5753.37    35.041775    19.177187
5753.97    39.770599    17.356998
5754.57    36.006214    16.425001
5755.17    33.556530    17.591261
5755.77    38.752922    17.298496
5756.37    37.421234    11.800006
5756.97    30.535843    13.712197
5757.58    28.066429    21.037809
5758.18    37.372280    17.117821
5758.78    42.147800    11.258458
5759.38    42.368866    10.062112
5759.98    48.128323    11.582978
5760.58    46.579765    12.257326
5761.18    39.918385    15.120209
5761.78    39.049282    20.781540
5762.38    44.613922    17.198566
5762.98    44.284718    12.576678
5763.58    34.156075    14.769644
5764.19    30.946539    14.525031
5764.79    30.282396    16.850676
5765.39    28.901997    22.806164
5765.99    33.074776    23.293730
5766.59    32.150608    23.655828
5767.19    29.113111    23.882475
5767.79    39.106842    18.139633
5768.39    52.029243    15.146745
5768.99    51.576931    18.776073
5769.59    35.162422    24.381086
5770.19    34.236115    23.125034
5770.80    45.033550    18.043980
5771.40    50.669205    14.886972
5772.00    57.575836    10.357385
5772.60    57.067936    11.853774
5773.20    46.167404    20.322153
5773.80    41.700031    20.826162
5774.40    42.356106    18.373787
5775.00    41.140720    18.954102
5775.60    34.828434    19.715164
5776.20    27.814869    17.155111
5776.80    32.961979    15.084764
5777.41    54.092873    19.546034
5778.01    48.202911    20.926262
5778.61    27.241756    18.809067
5779.21    28.518864    18.430548
5779.81    30.107189    16.010876
5780.41    29.357927    17.252235
5781.01    34.524639    23.099903
5781.61    41.336231    16.349581
5782.21    44.207230     8.943361
5782.81    39.941986    12.391139
5783.41    31.862514    16.430710
5784.02    39.274986    16.506392
5784.62    50.145382    17.849716
5785.22    29.171558    27.418896
5785.82    26.246357    24.912766
5786.42    42.365025    14.755552
5787.02    35.054462    19.025415
5787.62    37.692223    20.889599
5788.22    44.506561    21.987949
5788.82    31.912596    30.967506
5789.42    28.941912    28.426895
5790.03    30.113600    24.372379
5790.63    23.392660    31.734322
5791.23    28.229443    33.528442
5791.83    41.771431    25.176353
5792.43    47.617668    17.764360
5793.03    34.762066    27.270988
5793.63    35.434792    28.181707
5794.23    48.983635    16.088337
5794.83    37.395214    17.995691
5795.43    36.590866    19.386549
5796.03    48.258808    15.906462
5796.64    42.462006    17.504990
5797.24    44.970043    17.009108
5797.84    53.607315    13.436116
5798.44    49.905956    12.296963
5799.04    44.548576    16.490925
5799.64    44.652843    16.957809
5800.24    44.049026    11.735722
5800.84    27.149332    19.897003
5801.44    26.744511    28.405020
5802.04    47.372944    25.469297
5802.64    36.435776    21.998791
5803.25    28.526697    20.478487
5803.85    40.900475    18.047022
5804.45    43.581657    12.416609
5805.05    43.354015    11.881764
5805.65    42.673836    17.492517
5806.25    37.196060    21.412252
5806.85    41.481411    17.541435
5807.45    51.159454    12.799849
5808.05    49.520050    15.863300
5808.65    32.922932    18.426394
5809.25    29.882813    17.518702
5809.86    49.436962    16.595482
5810.46    43.045639    20.712568
5811.06    35.742802    20.620789
5811.66    45.686424    14.302979
5812.26    39.050533    15.807570
5812.86    34.197151    18.597261
5813.46    44.856518    17.025343
5814.06    56.674141    15.351317
5814.66    54.278801    18.316957
5815.26    41.008801    20.862303
5815.86    33.370872    16.360317
5816.47    34.869659    19.682526
5817.07    33.759655    26.524261
5817.67    23.704048    25.824627
5818.27    29.818731    28.886681
5818.87    45.563213    26.792297
5819.47    53.386303    13.739113
5820.07    54.140011    11.442129
5820.67    50.275280    16.845415
5821.27    46.146824    19.111731
5821.87    46.679024    15.880209
5822.47    43.405396    13.700009
5823.08    37.032093    15.954119
5823.68    38.966072    19.743338
5824.28    39.155113    24.782854
5824.88    39.427685    25.681551
5825.48    48.449997    18.031160
5826.08    46.712021    16.392717
5826.68    38.152328    19.065042
5827.28    38.339222    16.138727
5827.88    40.273525    13.057145
5828.48    46.491352    11.764857
5829.08    54.458061    11.746242
5829.69    42.664474    14.271853
5830.29    25.142521    20.696098
5830.89    21.448605    26.858820
5831.49    31.176691    23.754126
5832.09    39.197811    20.286020
5832.69    41.895157    19.085453
5833.29    50.168739    12.580046
5833.89    56.114723    12.751654
5834.49    53.556721    19.314724
5835.09    47.376511    19.957617
5835.69    54.556778    17.220922
5836.30    60.177002    16.110950
5836.90    46.932102    17.880825
5837.50    50.018219    16.603643
5838.10    54.833168    15.016741
5838.70    40.471725    16.740011
5839.30    35.167595    17.063091
5839.90    31.434635    19.464680
5840.50    23.908360    24.656231
5841.10    32.159958    24.363417
5841.70    33.840786    19.916164
5842.30    25.039608    16.058968
5842.91    32.563026    15.737222
5843.51    37.894173    16.021833
5844.11    37.198357    18.324034
5844.71    44.662979    24.593697
5845.31    46.927807    21.026218
5845.91    42.333237    12.149524
5846.51    38.962360    12.881626
5847.11    35.731506    21.285212
5847.71    35.538067    22.649988
5848.31    39.464382    12.251266
5848.92    39.450565    13.173713
5849.52    35.573051    17.356794
5850.12    31.433390    17.350035
5850.72    30.816322    27.014357
5851.32    45.651134    29.731779
5851.92    57.425636    23.045692
5852.52    27.425159    28.983047
5853.12    10.210555    34.387615
5853.72    28.173094    30.698343
5854.32    46.147587    24.507881
5854.92    35.422535    22.653328
5855.53    22.572779    21.443037
5856.13    41.748238    16.252457
5856.73    41.871811    19.771288
5857.33    24.832821    25.475729
5857.93    20.773205    22.845011
5858.53    30.320999    20.456497
5859.13    40.071270    19.775787
5859.73    44.104668    17.604046
5860.33    52.128624    12.785970
5860.93    46.664089    16.109386
5861.53    30.358025    23.978180
5862.14    34.271133    17.468210
5862.74    37.596252    17.601885
5863.34    29.684307    28.290434
5863.94    25.963387    29.831875
5864.54    38.573799    24.532928
5865.14    51.321297    20.964928
5865.74    44.999043    24.347042
5866.34    48.817368    28.767984
5866.94    51.393898    31.452948
5867.54    35.573349    32.827652
5868.14    34.831631    33.065479
5868.75    50.225586    31.081554
5869.35    58.351665    28.145777
5869.95    38.198662    28.481827
5870.55    31.968092    23.928164
5871.15    52.177788    15.252746
5871.75    51.275589    17.577959
5872.35    40.100277    26.309809
5872.95    37.074448    30.987686
5873.55    43.437855    25.902557
5874.15    43.297852    20.684198
5874.75    40.220600    21.376501
5875.36    48.396626    25.047144
5875.96    56.920834    21.716541
5876.56    54.107464    18.118071
5877.16    41.695477    22.376190
5877.76    42.133125    21.285460
5878.36    49.682220    17.151039
5878.96    49.822567    16.123980
5879.56    42.411724    15.245804
5880.16    36.795147    17.579939
5880.76    36.120918    22.741039
5881.36    34.088676    23.374132
5881.97    41.432941    20.337296
5882.57    57.162590    15.942307
5883.17    65.307739    12.080477
5883.77    64.831215    14.081871
5884.37    58.097187    19.401598
5884.97    50.316391    22.743008
5885.57    54.212852    32.123947
5886.17    58.591862    46.802967
5886.77    52.140846    61.151257
5887.37    58.428543    76.597183
5887.97    61.302429    99.574715
5888.58    50.263687    127.295616
5889.18    60.750156    140.182449
5889.78    77.556999    142.501801
5890.38    74.519592    140.575577
5890.98    50.317368    128.999542
5891.58    38.767700    106.650627
5892.18    50.997257    85.002380
5892.78    62.183239    81.422852
5893.38    55.993240    87.931999
5893.98    43.477989    90.768776
5894.58    46.779900    84.385521
5895.19    54.513969    85.158684
5895.79    52.421947    96.330482
5896.39    39.968849    103.926888
5896.99    39.368378    87.117439
5897.59    41.155186    70.100151
5898.19    32.479935    71.013504
5898.79    28.744381    55.860817
5899.39    33.325504    36.853848
5899.99    37.292549    31.158882
5900.59    29.916517    30.430056
5901.19    34.053307    29.112560
5901.80    48.925343    25.063255
5902.40    44.555096    20.067276
5903.00    37.471245    22.872427
5903.60    42.928009    26.843235
5904.20    55.476025    20.165415
5904.80    47.997215    22.168373
5905.40    37.066399    25.291059
5906.00    48.971592    15.410409
5906.60    52.039131    17.778961
5907.20    45.649963    24.538818
5907.80    41.352856    20.158707
5908.41    33.675804    16.423225
5909.01    42.658691    18.275209
5909.61    58.831009    23.483265
5910.21    30.552458    26.396904
5910.81    18.184677    24.630005
5911.41    44.520134    21.041119
5912.01    52.128342    22.159466
5912.61    37.510647    29.449764
5913.21    26.088747    32.690231
5913.81    38.971619    22.149925
5914.42    45.344116    19.524635
5915.02    37.543858    28.631527
5915.62    32.607002    36.404060
5916.22    43.173260    34.397758
5916.82    52.404442    27.482193
5917.42    44.885117    23.507090
5918.02    39.244873    21.660097
5918.62    41.508034    20.738945
5919.22    45.896355    20.075895
5919.82    42.581429    20.076441
5920.42    34.534927    24.840574
5921.03    33.741173    29.067926
5921.63    47.951706    21.262192
5922.23    46.030350    18.361155
5922.83    32.774506    23.177956
5923.43    39.158134    23.502230
5924.03    37.314690    26.760136
5924.63    32.677711    29.921354
5925.23    46.278412    25.483437
5925.83    52.405659    22.339031
5926.43    50.965469    21.907444
5927.03    48.496391    22.408594
5927.64    30.087158    27.131002
5928.24    18.053068    34.421791
5928.84    26.764179    38.967888
5929.44    32.849350    36.083099
5930.04    34.785511    33.921364
5930.64    38.773952    37.804935
5931.24    46.281170    42.259956
5931.84    46.577404    35.798912
5932.44    40.784176    25.808910
5933.04    39.952614    29.698574
5933.64    39.065022    32.761074
5934.25    35.348114    29.350719
5934.85    33.890038    25.059446
5935.45    45.181587    22.552084
5936.05    44.391033    23.660158
5936.65    21.137888    26.198338
5937.25    28.400093    21.950455
5937.85    47.100468    15.073216
5938.45    49.116882    12.828616
5939.05    48.981354    16.386044
5939.65    45.893776    20.134962
5940.25    36.438896    20.987957
5940.86    26.756544    20.918560
5941.46    39.087723    18.163284
5942.06    54.917469    16.058138
5942.66    38.022442    19.783588
5943.26    37.444878    20.737543
5943.86    54.772781    17.518642
5944.46    57.571865    16.214592
5945.06    55.875938    21.054853
5945.66    47.879940    26.959026
5946.26    31.044203    29.293743
5946.86    22.577095    33.693233
5947.47    26.310871    33.930267
5948.07    34.387627    27.609810
5948.67    35.255642    25.522722
5949.27    33.631794    23.821877
5949.87    33.065372    22.866390
5950.47    30.919304    30.034319
5951.07    36.107269    30.091915
5951.67    44.180256    23.868435
5952.27    44.786106    26.129032
5952.87    59.119911    26.014244
5953.47    65.046753    26.897846
5954.08    35.545547    35.886002
5954.68    24.262423    33.219681
5955.28    32.993671    24.607292
5955.88    38.727715    23.105791
5956.48    45.816853    21.588800
5957.08    50.997890    19.424784
5957.68    46.524971    19.690165
5958.28    30.607460    23.457233
5958.88    29.052982    24.821329
5959.48    47.471817    22.077820
5960.08    58.408268    20.692043
5960.69    50.356682    21.927326
5961.29    38.866825    22.953930
5961.89    45.737732    20.337170
5962.49    45.839134    17.432764
5963.09    39.715088    17.201149
5963.69    43.035309    19.482952
5964.29    43.470234    20.107588
5964.89    40.388298    18.496502
5965.49    42.293301    17.002657
5966.09    53.422421    18.275166
5966.69    52.511292    20.818483
5967.30    32.946907    23.573324
5967.90    23.370020    27.372337
5968.50    28.942352    24.215521
5969.10    38.891155    17.047646
5969.70    40.058571    20.105032
5970.30    41.517040    25.116751
5970.90    42.758133    25.953011
5971.50    38.312988    24.137804
5972.10    49.590492    20.990366
5972.70    53.757790    20.285666
5973.31    28.091942    24.025528
5973.91    30.200043    25.798494
5974.51    44.483616    22.745033
5975.11    38.390518    18.227690
5975.71    35.219215    20.413570
5976.31    33.930790    25.704117
5976.91    30.128424    28.812723
5977.51    32.603508    29.248707
5978.11    41.432056    23.475716
5978.71    43.029678    18.990791
5979.31    25.874470    27.855762
5979.92    30.966053    26.602053
5980.52    52.011940    18.980160
5981.12    47.863239    25.277264
5981.72    35.702057    20.379940
5982.32    36.964458    10.212933
5982.92    52.632065    14.705824
5983.52    52.928696    21.883732
5984.12    49.757023    18.326927
5984.72    56.723717     7.454741
5985.32    50.748894    13.313683
5985.92    39.453938    19.301003
5986.53    36.768299    15.102168
5987.13    42.455070    18.491758
5987.73    42.214413    21.316616
5988.33    36.986904    17.917439
5988.93    41.562027    14.432242
5989.53    44.850220    14.745927
5990.13    41.412064    15.926155
5990.73    35.731777    14.938545
5991.33    31.687908    21.369709
5991.93    32.830265    25.568443
5992.53    39.350842    17.621632
5993.14    45.533512    15.032206
5993.74    54.356262    15.838808
5994.34    60.075459    14.078447
5994.94    42.758202    15.179985
5995.54    32.492561    15.810172
5996.14    37.185276    15.856668
5996.74    24.608891    21.340979
5997.34    25.950140    24.957626
5997.94    43.527843    22.821520
5998.54    45.393837    18.903383
5999.14    47.166382    18.056881
5999.75    49.702366    19.019283
6000.35    43.949600    17.215038
6000.95    45.092346    12.903432
6001.55    49.428345    14.601089
6002.15    46.957962    22.713142
6002.75    42.777313    17.051710
6003.35    42.788986    10.217189
6003.95    49.811268    13.626991
6004.55    59.925262    14.905250
6005.15    54.491856    18.335623
6005.75    35.243198    23.961884
6006.36    27.223455    22.606955
6006.96    27.987265    19.865019
6007.56    34.900078    18.925772
6008.16    46.370953    17.637501
6008.76    45.101143    15.751261
6009.36    43.103790    13.621912
6009.96    53.663925    12.631430
6010.56    44.685181    15.518378
6011.16    34.905743    18.372747
6011.76    42.624973    17.358812
6012.36    37.024143    15.243200
6012.97    39.219181    13.359829
6013.57    52.951401    13.765718
6014.17    40.029861    18.531948
6014.77    34.004585    19.224474
6015.37    43.066223    15.970533
6015.97    37.315697    16.688168
6016.57    36.548943    12.534028
6017.17    39.653419     9.372216
6017.77    32.118652    17.747311
6018.37    34.750526    20.554577
6018.97    43.205608    19.092070
6019.58    45.227222    21.027802
6020.18    50.619373    18.058968
6020.78    48.063335    12.318809
6021.38    37.219894     9.920190
6021.98    45.315510    12.427341
6022.58    53.246300    14.213713
6023.18    49.101952    13.026698
6023.78    46.528820    13.083425
6024.38    38.814762    15.576750
6024.98    34.406723    16.898897
6025.58    47.044285    13.271352
6026.19    47.138145    11.530797
6026.79    38.232761    14.927817
6027.39    40.177231    20.292727
6027.99    41.500122    20.070942
6028.59    46.605888    15.821743
6029.19    54.545700    15.128470
6029.79    42.072773    23.539831
6030.39    36.409889    25.827055
6030.99    45.965683    19.148312
6031.59    36.424530    22.526117
6032.19    37.333416    21.880484
6032.80    51.157646    13.823415
6033.40    44.606812    13.181034
6034.00    36.740314    18.492702
6034.60    35.936901    23.371220
6035.20    34.609261    23.003410
6035.80    33.012844    19.164209
6036.40    36.746407    16.948713
6037.00    43.996296    18.672443
6037.60    37.325939    19.306135
6038.20    30.199835    21.017513
6038.81    35.991890    23.180967
6039.41    45.319721    17.882921
6040.01    52.851414    12.062543
6040.61    51.067799    10.011590
6041.21    35.499016     8.486776
6041.81    32.406002    11.328104
6042.41    39.107246    16.325008
6043.01    30.644585    18.515560
6043.61    14.688440    24.404644
6044.21    17.734203    23.025524
6044.81    45.149227     8.642111
6045.42    45.047668    11.395355
6046.02    33.243793    18.573566
6046.62    37.143536    14.405985
6047.22    40.641968    15.375734
6047.82    38.603825    16.820814
6048.42    37.815327    11.331606
6049.02    44.515263     3.541293
6049.62    30.831636    13.007522
6050.22    15.352091    27.152227
6050.82    38.859688    17.164629
6051.42    43.662968    12.332287
6052.03    29.677509    17.746443
6052.63    34.453484    17.463388
6053.23    47.309578    10.446547
6053.83    45.843174     9.260780
6054.43    26.598103    18.739304
6055.03    19.974043    21.372965
6055.63    28.235836    17.005814
6056.23    39.499611    13.949713
6056.83    43.031483    17.608067
6057.43    40.000954    18.060682
6058.03    35.878735    12.776093
6058.64    35.314835    10.253553
6059.24    37.724819    13.949570
6059.84    43.029495    16.836805
6060.44    47.824024    12.656364
6061.04    39.133606    13.896522
6061.64    24.959845    19.125813
6062.24    21.751822    21.015371
6062.84    33.898773    20.052418
6063.44    43.837955    18.512932
6064.04    39.682270    16.317993
6064.64    30.742832    11.896801
6065.25    28.145617    15.141282
6065.85    33.166550    22.042358
6066.45    36.795727    17.500439
6067.05    32.063461    13.919301
6067.65    26.990494    16.508436
6068.25    31.727488    19.186661
6068.85    32.895470    16.618555
6069.45    32.467041    17.327053
6070.05    39.618832    24.039446
6070.65    51.873337    16.705490
6071.25    46.275631     8.890831
6071.86    25.787670    12.573548
6072.46    30.472414    15.830687
6073.06    33.662182    18.135267
6073.66    29.098961    17.919891
6074.26    42.327450    12.447386
6074.86    43.054543    15.400113
6075.46    37.585037    19.685459
6076.06    50.134701    11.615791
6076.66    46.125385    11.936801
6077.26    34.769287    16.170231
6077.86    39.332600    13.281075
6078.47    45.865173    14.767065
6079.07    44.030350    15.235681
6079.67    33.165386    10.362316
6080.27    22.232792     9.424651
6080.87    24.222834    15.894227
6081.47    36.206039    22.006371
6082.07    40.840885    17.079725
6082.67    37.171196    15.040184
6083.27    36.788116    15.648073
6083.87    47.024349    10.615086
6084.47    47.277328    12.466225
6085.08    37.496254    16.147270
6085.68    31.692436    14.050925
6086.28    37.793167    16.339287
6086.88    39.760059    15.332624
6087.48    33.936344     8.326151
6088.08    41.308315     9.011907
6088.68    41.288898    12.004036
6089.28    34.032143    10.907381
6089.88    43.234528     7.302296
6090.48    43.598289     8.910091
6091.08    38.169113    12.020758
6091.69    45.612713     9.934062
6092.29    44.422085    13.003321
6092.89    38.034286    14.111152
6093.49    37.312210     9.513552
6094.09    33.326527    19.065342
6094.69    28.775709    24.475197
6095.29    30.530113    14.662066
6095.89    40.271053     9.368450
6096.49    47.073242     9.275806
6097.09    40.306026    12.225332
6097.70    23.857130    17.407654
6098.30    33.272911    15.845360
6098.90    50.797237    10.398811
6099.50    41.148857    10.213539
6100.10    36.225616    13.810574
6100.70    39.870235    16.240026
6101.30    38.236698    15.906157
6101.90    28.210472    17.404280
6102.50    29.272812    15.102731
6103.10    41.737259    10.046585
6103.70    39.080162    13.500220
6104.31    38.415031    17.149244
6104.91    41.851574    16.984547
6105.51    32.693386    17.533386
6106.11    21.595188    18.771772
6106.71    21.172728    17.286015
6107.31    31.362463    13.122610
6107.91    32.570827    16.078646
6108.51    31.773516    18.937952
6109.11    35.995476    16.130644
6109.71    31.723959    17.644747
6110.31    31.977312    16.352879
6110.92    41.882389    12.005077
6111.52    47.379608    15.899994
6112.12    47.745941    18.663025
6112.72    45.747715    19.303974
6113.32    42.643482    23.085430
6113.92    37.046112    19.024273
6114.52    37.301243    13.652864
6115.12    46.710339    16.428452
6115.72    47.588306    16.614178
6116.32    44.287693    12.120301
6116.92    42.426052     8.071117
6117.53    36.274582    10.218764
6118.13    39.981010    12.629789
6118.73    47.977070    13.038541
6119.33    39.717438    14.574335
6119.93    42.788410    10.920076
6120.53    53.728329     6.989843
6121.13    48.457962    11.386030
6121.73    35.995514    15.553928
6122.33    29.428530    15.669703
6122.93    29.642313    14.739667
6123.53    22.071644    17.961832
6124.14    25.460806    15.434895
6124.74    41.620071     7.160791
6125.34    41.352669     9.124405
6125.94    38.676632    14.498796
6126.54    38.738117    18.337030
6127.14    32.615829    21.397507
6127.74    31.409185    17.385803
6128.34    39.139000    11.184563
6128.94    47.139900    11.299792
6129.54    39.137363    15.000504
6130.14    24.993710    17.305931
6130.75    19.101509    16.193968
6131.35    20.747784    15.022313
6131.95    22.147886    18.101732
6132.55    27.259827    19.917723
6133.15    44.831444    11.731820
6133.75    46.637444    12.785015
6134.35    40.177822    17.844435
6134.95    46.120399    12.182595
6135.55    31.887873    18.035616
6136.15    20.369404    23.608589
6136.75    37.037487    15.103719
6137.36    48.504917    13.884213
6137.96    47.521801    19.209894
6138.56    42.144047    22.023584
6139.16    40.395271    18.123602
6139.76    38.855297    11.824364
6140.36    34.495438    12.697210
6140.96    31.701433    23.490707
6141.56    44.468895    20.778545
6142.16    56.885147    12.145709
6142.76    50.786453    14.382450
6143.36    45.377598    14.911002
6143.97    43.103901    13.988145
6144.57    39.386383    15.771808
6145.17    34.810753    18.334900
6145.77    32.243496    18.772961
6146.37    35.301609    15.807737
6146.97    43.136795    11.522155
6147.57    40.520020    12.417280
6148.17    34.980644    15.103720
6148.77    41.724041    13.398824
6149.37    48.078323    13.210861
6149.97    44.710712    14.121798
6150.58    39.346455    13.237592
6151.18    53.523972    11.049022
6151.78    63.471970     9.662672
6152.38    52.953663    12.014918
6152.98    37.303024    18.189600
6153.58    38.987080    16.550495
6154.18    47.033672    13.304111
6154.78    40.068649    19.464378
6155.38    42.664040    15.633445
6155.98    42.736870    11.416241
6156.58    27.641973    17.590328
6157.19    26.315723    14.627642
6157.79    31.404064    12.679139
6158.39    31.990366    17.898003
6158.99    32.506172    17.477057
6159.59    30.250708    14.686652
6160.19    28.064772    16.590862
6160.79    32.086880    23.422401
6161.39    37.156490    20.308882
6161.99    35.679970    14.585231
6162.59    29.831493    16.831486
6163.20    37.857239    14.367380
6163.80    51.436939     9.545957
6164.40    53.478271     9.762740
6165.00    39.746403    15.620522
6165.60    39.091984    15.457840
6166.20    44.461975    12.084097
6166.80    26.733555    17.892319
6167.40    22.765192    21.421375
6168.00    26.197180    22.573517
6168.60    16.778286    25.244793
6169.20    21.790134    20.451660
6169.81    33.042522    14.739366
6170.41    33.460094    16.562984
6171.01    24.766258    23.101450
6171.61    23.172316    21.260098
6172.21    32.679871    12.630000
6172.81    41.593769    11.702813
6173.41    41.992893    15.977713
6174.01    33.948307    19.310472
6174.61    24.316566    18.474491
6175.21    22.456535    16.519054
6175.81    26.703196    16.165922
6176.42    31.626720    16.186871
6177.02    35.211098    12.663102
6177.62    38.854160    13.540402
6178.22    39.857067    15.861080
6178.82    34.923088     9.365211
6179.42    35.607769    10.125895
6180.02    37.694427    13.926827
6180.62    32.222939    10.757557
6181.22    29.739161    16.553564
6181.82    34.245361    18.728010
6182.42    43.156315    10.396629
6183.03    49.454189    12.250148
6183.63    39.715702    16.039433
6184.23    28.062805    16.029234
6184.83    40.898529    16.788567
6185.43    43.619595    12.408941
6186.03    36.429073     7.722704
6186.63    38.708420    11.949729
6187.23    36.406696    21.640732
6187.83    32.065140    24.119616
6188.43    33.582886    15.744381
6189.03    39.398399     9.964529
6189.64    40.131916     8.958356
6190.24    35.824051     8.925027
6190.84    33.798042     7.404942
6191.44    26.790859    11.495020
6192.04    28.477848    14.797150
6192.64    46.161312    10.448240
6193.24    43.787216    12.097638
6193.84    46.935482    13.505484
6194.44    61.393250    10.921808
6195.04    36.731644    15.782204
6195.64    22.626482    17.580229
6196.25    37.009907    12.634670
6196.85    42.123062    10.222455
6197.45    32.051678    14.549446
6198.05    25.261442    16.308302
6198.65    34.312248    10.342659
6199.25    37.158058    14.223001
6199.85    29.160156    20.349241
6200.45    21.971022    20.053099
6201.05    29.500313    19.527353
6201.65    35.811729    17.794676
6202.25    31.207216    15.966677
6202.86    26.632772    16.418776
6203.46    46.651604    13.386110
6204.06    60.260448    11.106062
6204.66    40.264366    14.428468
6205.26    31.596968    15.911638
6205.86    31.416334    13.852646
6206.46    30.899948    11.038802
6207.06    38.995522    10.798821
6207.66    42.338131    10.972382
6208.26    39.884209    11.092894
6208.86    40.942093    13.008452
6209.47    39.331692    16.763208
6210.07    36.479496    17.482477
6210.67    36.036762    12.011570
6211.27    36.274220     5.617635
6211.87    43.312027     7.148937
6212.47    48.937439    15.089577
6213.07    36.298447    17.636425
6213.67    32.087925    15.053915
6214.27    34.515236    11.545401
6214.87    27.547230    10.157827
6215.47    32.201435     9.561563
6216.08    42.782757     8.637183
6216.68    46.030937     8.766518
6217.28    43.612404    12.672744
6217.88    38.222511    13.493570
6218.48    35.009727    10.927743
6219.08    37.967144    11.649355
6219.68    38.772171    12.040384
6220.28    31.698399    15.473768
6220.88    24.189003    21.408043
6221.48    36.428799    12.792604
6222.09    36.457157     9.498573
6222.69    18.244312    19.741028
6223.29    28.297302    18.370331
6223.89    40.188953    11.390501
6224.49    42.478046     6.563989
6225.09    47.783161     5.215896
6225.69    43.774124     9.958087
6226.29    36.911270    14.695946
6226.89    36.217907    14.179491
6227.49    32.711655    13.387798
6228.09    31.176823    12.483708
6228.70    35.105911    12.019331
6229.30    38.269882    13.395392
6229.90    31.561871    10.379945
6230.50    27.866854     6.909671
6231.10    38.070057    10.606949
6231.70    34.896442    16.061750
6232.30    43.012608    15.988768
6232.90    65.663719    14.600278
6233.50    50.893509    26.140854
6234.10    38.818260    31.372072
6234.70    45.435810    26.733929
6235.31    41.609493    29.253374
6235.91    24.005074    39.085934
6236.51    17.358658    38.437836
6237.11    30.970348    23.242420
6237.71    26.022575    25.306232
6238.31    14.063425    30.862101
6238.91    13.034304    27.979107
6239.51    19.171282    27.357574
6240.11    21.045324    25.230700
6240.71    18.743427    21.471401
6241.31    20.563341    20.035107
6241.92    28.968565    20.218946
6242.52    39.236778    19.453636
6243.12    41.482536    17.140732
6243.72    29.252037    15.722988
6244.32    26.262432    13.829245
6244.92    34.536617    10.660882
6245.52    36.147686     8.509058
6246.12    41.404625    12.445800
6246.72    42.851147    16.306150
6247.32    33.211617    14.307765
6247.92    29.069078    13.829635
6248.53    28.784203    16.342251
6249.13    27.988905    16.918068
6249.73    29.136911    10.871780
6250.33    35.664959     8.695009
6250.93    39.925152    10.029036
6251.53    35.019650     9.602148
6252.13    32.984615    13.639946
6252.73    34.816143    15.862616
6253.33    38.735554    11.259590
6253.93    45.290558     7.198966
6254.53    42.962708    15.613520
6255.14    34.075806    27.858891
6255.74    29.481186    28.568590
6256.34    23.200855    33.278126
6256.94    25.996475    32.960712
6257.54    39.281094    23.311951
6258.14    36.812130    28.026186
6258.74    25.880856    29.678598
6259.34    23.396166    21.516830
6259.94    35.126987    17.880480
6260.54    42.204998    14.726806
6261.14    38.282139    14.841871
6261.75    29.394932    21.106441
6262.35    23.844288    23.738285
6262.95    33.683380    19.315166
6263.55    48.060871    15.015681
6264.15    39.959957    19.966278
6264.75    30.992418    18.579117
6265.35    31.509520    15.321329
6265.95    35.799561    20.623846
6266.55    41.376511    17.172550
6267.15    42.464481    12.099616
6267.75    38.143520    14.838270
6268.36    34.690212    19.330854
6268.96    30.327774    18.732409
6269.56    29.571747    13.062742
6270.16    37.223553     7.767371
6270.76    40.637856     6.998180
6271.36    35.493275    12.512822
6271.96    29.090855    18.889790
6272.56    33.336449    15.522115
6273.16    39.757854    12.011914
6273.76    42.125519    11.894562
6274.36    40.357620    10.601625
6274.97    29.791279    14.096977
6275.57    30.058191    15.189863
6276.17    47.689098     9.415968
6276.77    48.682400     9.807135
6277.37    42.753277    13.949999
6277.97    36.200165    17.186451
6278.57    22.531464    18.913836
6279.17    21.906504    18.263639
6279.77    31.123438    14.889041
6280.37    35.726681    11.885899
6280.97    35.606323    15.463136
6281.58    29.416878    15.981647
6282.18    21.830723    10.845097
6282.78    21.860758    10.072920
6283.38    25.201122    13.368951
6283.98    30.522198    14.750190
6284.58    34.576870    14.120288
6285.18    26.015202    23.872814
6285.78    23.456190    29.190657
6286.38    36.213337    24.971651
6286.98    47.103420    26.555412
6287.59    44.610474    25.298304
6288.19    37.065758    21.596054
6288.79    36.210381    22.520821
6289.39    33.622345    24.191065
6289.99    34.349453    18.193886
6290.59    38.001858     8.022287
6291.19    34.269344     8.129827
6291.79    37.610046     8.797693
6292.39    40.011471    11.263374
6292.99    30.472290    18.837711
6293.59    37.239754    12.723152
6294.20    44.733662     6.153407
6294.80    39.100456    11.850370
6295.40    35.880085    19.592514
6296.00    33.261997    20.199808
6296.60    32.259621    19.550880
6297.20    34.346954    27.094103
6297.80    29.629200    34.181198
6298.40    29.965109    38.380074
6299.00    34.139530    43.790943
6299.60    21.539167    54.289875
6300.20    28.464493    60.273460
6300.81    40.528366    59.752483
6301.41    24.459188    56.538956
6302.01    25.990786    46.617069
6302.61    38.961163    30.525057
6303.21    41.103668    17.160749
6303.81    34.143276    17.855434
6304.41    32.147839    22.061554
6305.01    30.920521    25.939255
6305.61    21.914701    32.033104
6306.21    24.033337    33.961411
6306.81    28.664660    32.142097
6307.42    27.017986    30.031231
6308.02    28.888874    28.163626
6308.62    34.407211    20.901655
6309.22    35.261318    14.713909
6309.82    30.388012    15.723533
6310.42    40.124146     7.852195
6311.02    42.755623     7.726120
6311.62    29.098385    18.951994
6312.22    26.792658    15.086715
6312.82    29.414301     9.870754
6313.42    33.036339     8.605478
6314.03    37.257225     6.776744
6314.63    31.700493    10.505354
6315.23    30.456299    13.245493
6315.83    38.034283    10.982490
6316.43    37.456882     9.864707
6317.03    34.519058    10.610993
6317.63    37.336521    10.833962
6318.23    42.471634     9.884950
6318.83    33.056591    12.393971
6319.43    26.224661    16.828533
6320.03    30.073374    17.922792
6320.64    29.324760    13.580799
6321.24    30.013874    15.389938
6321.84    30.587210    20.936255
6322.44    26.563498    21.296461
6323.04    24.596470    18.368858
6323.64    25.846926    13.868424
6324.24    26.965784    12.117353
6324.84    23.916515    16.741428
6325.44    17.905769    18.070700
6326.04    20.448978    15.136640
6326.64    30.785437    13.824238
6327.25    24.374792    17.508488
6327.85    25.984671    21.728401
6328.45    36.182529    23.003237
6329.05    28.515396    22.730017
6329.65    24.640030    25.008816
6330.25    26.162102    29.385319
6330.85    24.237413    31.165144
6331.45    21.992777    25.649759
6332.05    26.510277    18.530636
6332.65    29.469658    16.068434
6333.25    20.506275    17.463192
6333.86    20.577896    12.544592
6334.46    29.243656    10.980468
6335.06    36.819332    15.974220
6335.66    38.999153    11.878344
6336.26    27.490122    10.153334
6336.86    19.508532    12.016573
6337.46    34.384979     9.584947
6338.06    47.490837     7.511768
6338.66    39.622803     6.745386
6339.26    24.947756     5.975145
6339.86    35.881763     4.959504
6340.47    43.980572     6.011885
6341.07    37.721218     8.639525
6341.67    29.462421    10.768051
6342.27    30.222164    11.930159
6342.87    26.709145    11.672689
6343.47    23.565830     9.784245
6344.07    38.494133     6.827265
6344.67    41.876953     5.001058
6345.27    33.520458     9.294945
6345.87    30.755157    15.127697
6346.48    36.867565     7.124228
6347.08    34.871326     5.333680
6347.68    27.586472    11.430187
6348.28    31.948753    10.210148
6348.88    40.280640    11.455736
6349.48    40.366989    10.782012
6350.08    30.078182     7.985765
6350.68    22.118439    14.284383
6351.28    29.935947    14.598839
6351.88    36.332321    10.767254
6352.48    25.241211    12.793813
6353.09    25.062128    12.164846
6353.69    28.893368    13.271446
6354.29    26.759836    15.993083
6354.89    24.991379    13.899020
6355.49    31.422550    17.367682
6356.09    36.035824    21.319536
6356.69    30.502546    19.141874
6357.29    25.646267    18.650200
6357.89    22.100676    15.785502
6358.49    19.854618    11.649868
6359.09    23.484259    11.221389
6359.70    38.077297     9.006882
6360.30    40.439079     8.564756
6360.90    27.936468    15.106398
6361.50    28.952370    25.859913
6362.10    20.060350    26.938078
6362.70    17.889896    20.554386
6363.30    37.834209    18.649721
6363.90    30.284931    23.542458
6364.50    13.225559    23.534336
6365.10    16.747400    17.510540
6365.70    37.659546    16.415356
6366.31    32.650597    19.008627
6366.91    24.292953    15.289946
6367.51    31.054821     8.924838
6368.11    20.063591    18.075592
6368.71    21.010189    15.202652
6369.31    29.011499     6.924727
6369.91    21.655508    14.875499
6370.51    25.335133    15.511695
6371.11    34.577240     8.904515
6371.71    34.507797     7.321564
6372.31    26.167660    15.360303
6372.92    33.039963    16.005009
6373.52    37.786591    10.374350
6374.12    24.684891     8.880006
6374.72    18.735872    12.875923
6375.32    20.493216    13.219569
6375.92    23.399929    10.895082
6376.52    25.982674    13.263517
6377.12    32.521858    17.000648
6377.72    26.594193    17.708454
6378.32    16.095413    14.779918
6378.92    29.634579    11.607620
6379.53    36.639961    10.748269
6380.13    34.708153    13.031630
6380.73    30.749361    16.805710
6381.33    14.471283    18.385534
6381.93    15.508257    16.653204
6382.53    25.139046    14.975638
6383.13    18.292212    15.981880
6383.73    25.146244    15.158875
6384.33    29.255590    18.584078
6384.93    22.833532    22.917624
6385.53    26.346487    16.201735
6386.14    29.843187    11.924894
6386.74    29.911423    12.049262
6387.34    29.078094    12.877382
6387.94    27.307276    16.228436
6388.54    27.623941    16.184565
6389.14    30.774067    12.106772
6389.74    31.140911     9.117861
6390.34    19.408417    10.287206
6390.94    13.690570    13.412453
6391.54    18.228609    13.782857
6392.14    18.287762     9.754543
6392.75    23.999355     9.350350
6393.35    26.007738    11.750031
6393.95    21.956907    12.028858
6394.55    31.161150     9.569380
6395.15    36.827175     9.419064
6395.75    30.827129     9.692472
6396.35    25.423882     7.939520
6396.95    36.823677    10.688043
6397.55    35.449463    11.750995
6398.15    24.934822     9.882311
6398.75    33.822758     9.533900
6399.36    30.670027     5.694138
6399.96    28.527361     7.078959
6400.56    36.072292    15.189608
6401.16    32.961498    16.277203
6401.76    38.540775    11.106304
6402.36    41.568459     5.844027
6402.96    28.779991     5.768023
6403.56    24.305656    10.362846
6404.16    33.932575     8.766869
6404.76    43.854160     4.941177
6405.36    38.251106     8.454085
6405.97    23.605099     9.494023
6406.57    25.613310     8.794698
6407.17    38.470669     7.772210
6407.77    32.921963     5.721206
6408.37    29.925295     9.404386
6408.97    33.430717    11.962753
6409.57    34.987282     7.953625
6410.17    29.759512     5.171186
6410.77    18.208500    10.434755
6411.37    22.882612    15.337828
6411.98    43.558296    12.262526
6412.58    31.980000    10.877943
6413.18    24.512218    11.090882
6413.78    33.466957     9.377856
6414.38    33.421921     6.788570
6414.98    22.059917    11.130447
6415.58    24.785532    12.060576
6416.18    34.884415     9.038949
6416.78    23.247332    12.526537
6417.38    23.756458    11.003561
6417.98    37.425896     6.716962
6418.59    46.053551     6.020262
6419.19    40.593372     7.547112
6419.79    25.494766     8.379917
6420.39    23.564783     9.652996
6420.99    36.783783    12.819810
6421.59    29.168106    15.091602
6422.19    24.704140    13.535926
6422.79    28.185307    10.524828
6423.39    25.355995    10.695033
6423.99    23.866896    13.853312
6424.59    17.880478    14.960691
6425.20    13.297260    12.552872
6425.80    21.404259     9.569856
6426.40    25.972246     7.121452
6427.00    33.729713     5.293067
6427.60    38.430611     6.293461
6428.20    22.651960    11.306425
6428.80    24.088215    10.772287
6429.40    34.343884     8.938850
6430.00    30.926702     9.997752
6430.60    21.483540     8.283126
6431.20    27.010429     9.019628
6431.81    36.097572     9.641374
6432.41    31.440403     7.949814
6433.01    24.809029    11.155260
6433.61    21.867348    10.761199
6434.21    23.894611     7.682424
6434.81    27.075832     9.530438
6435.41    23.890182    13.084772
6436.01    28.196650    10.436645
6436.61    36.561874     4.297688
6437.21    31.812153     4.971120
6437.81    22.688080    12.397572
6438.42    28.699772    14.317755
6439.02    38.883888     9.653935
6439.62    27.336460     9.053525
6440.22    25.753759     7.873754
6440.82    32.043995     6.948406
6441.42    34.061680     8.074867
6442.02    34.439316     9.008786
6442.62    31.815804     8.275792
6443.22    29.705444     6.241880
6443.82    28.996506     7.006394
6444.42    24.876053    13.465374
6445.03    25.089329     9.947165
6445.63    33.058987     4.835142
6446.23    39.144218     7.978094
6446.83    29.588001     4.796219
6447.43    29.436359     6.083110
6448.03    29.934219    10.525968
6448.63    17.360104     8.412180
6449.23    23.908686     4.711931
6449.83    24.359848     8.143574
6450.43    17.946682    13.374274
6451.03    25.706453    10.600822
6451.64    31.757408     7.620778
6452.24    30.659489     9.981719
6452.84    29.290770    11.568595
6453.44    34.782040     5.733201
6454.04    39.524395     5.624559
6454.64    33.338528    10.237673
6455.24    28.753187    11.788898
6455.84    42.253510     7.736831
6456.44    40.044643     6.489159
6457.04    28.881544     7.206132
6457.64    28.611620     8.190382
6458.25    38.075977    10.208677
6458.85    34.563099     7.168866
6459.45    27.230844     7.395872
6460.05    26.986809    12.064005
6460.65    27.451187     9.520910
6461.25    36.519497    10.435943
6461.85    42.244301    11.789241
6462.45    32.597801    12.127283
6463.05    18.361359    20.255253
6463.65    22.111843    21.482365
6464.25    27.841486    20.642193
6464.86    23.999273    23.999825
6465.46    31.886818    21.527966
6466.06    27.657082    22.625778
6466.66    18.802904    25.225296
6467.26    26.620716    22.128130
6467.86    42.366119    16.907055
6468.46    37.349743    16.693995
6469.06    27.301987    17.834139
6469.66    31.947453    16.920319
6470.26    27.773167    21.366543
6470.87    30.929232    23.526571
6471.47    37.718159    21.215475
6472.07    36.029175    18.193586
6472.67    37.913036    15.171930
6473.27    35.361557    12.378287
6473.87    32.007282    10.775828
6474.47    35.724606    10.114845
6475.07    36.523460     7.842944
6475.67    31.371336     6.602793
6476.27    28.101341     7.219056
6476.87    32.559067     8.773069
6477.48    35.081993    11.870356
6478.08    30.450317    13.752181
6478.68    27.325663    14.064633
6479.28    33.396084    14.067286
6479.88    36.015457    13.047331
6480.48    28.356707    13.753395
6481.08    20.111757    13.398838
6481.68    22.484373     8.508878
6482.28    27.556168     5.185098
6482.88    33.213028     5.993061
6483.48    34.401257    10.089212
6484.09    31.648050    12.314305
6484.69    40.259235     5.613927
6485.29    41.075508     3.016664
6485.89    35.774143     8.416139
6486.49    41.207703    12.086355
6487.09    45.643421     8.246871
6487.69    34.071171     8.280882
6488.29    22.425688    12.719172
6488.89    31.695320    12.329108
6489.49    40.404400     8.139090
6490.09    31.587080     7.217555
6490.70    30.180639     5.997474
6491.30    48.046375     1.855052
6491.90    27.598829     8.575852
6492.50    17.395704     9.913699
6493.10    29.391174     5.508979
6493.70    33.718029     6.865914
6494.30    36.903503     7.511344
6494.90    30.650822     9.814789
6495.50    21.704393    14.040143
6496.10    23.594019    16.888344
6496.70    30.044304    18.026287
6497.31    32.947029    21.748972
6497.91    29.554632    25.587378
6498.51    27.682760    25.091188
6499.11    38.602375    23.033150
6499.71    37.890541    20.058187
6500.31    33.500481    17.380169
6500.91    37.154499    16.957344
6501.51    25.010788    18.447235
6502.11    24.995203    14.676466
6502.71    33.496056     8.420701
6503.31    31.060776     8.930809
6503.92    26.339546    17.078953
6504.52    28.274372    13.939499
6505.12    33.495987     8.808312
6505.72    36.025166    13.044988
6506.32    36.154297    13.150553
6506.92    30.523247    13.630401
6507.52    31.206432    11.107576
6508.12    40.221916     4.830667
6508.72    39.157318     5.030694
6509.32    35.740948     9.174577
6509.92    32.523251    13.661824
6510.53    28.766275    14.860433
6511.13    27.060238    10.881260
6511.73    27.280622     9.005180
6512.33    25.958591     8.884156
6512.93    21.386621    10.443648
6513.53    18.331738    14.835442
6514.13    25.970407    12.017049
6514.73    30.330168    10.180311
6515.33    29.388559    10.575768
6515.93    33.305717     5.467346
6516.53    25.875252     6.869330
6517.14    25.064056    13.574113
6517.74    29.756989    15.438437
6518.34    24.883369     9.466223
6518.94    32.168453     9.724477
6519.54    29.558226    11.734829
6520.14    21.953659    12.180708
6520.74    30.333967    12.168392
6521.34    34.044235     9.021185
6521.94    29.641481    11.961426
6522.54    25.489883    14.550888
6523.14    27.870184    10.988335
6523.75    32.829430    16.139759
6524.35    34.443596    18.512402
6524.95    31.807264    16.313866
6525.55    30.037239    13.903824
6526.15    33.547943     9.136638
6526.75    31.791302     6.947877
6527.35    25.602209     9.506777
6527.95    21.870504    11.945353
6528.55    22.503691     8.646426
6529.15    25.204908     8.037359
6529.75    31.311909     9.575356
6530.36    34.689331     8.624109
6530.96    27.310162     9.239481
6531.56    22.808361    25.993954
6532.16    24.369864    30.402325
6532.76    27.471464    20.920748
6533.36    30.381178    21.078913
6533.96    36.396439    17.968422
6534.56    26.041821    21.966398
6535.16    18.100636    25.122005
6535.76    32.581264    16.269104
6536.37    33.231327    14.164063
6536.97    27.558086    11.986824
6537.57    26.164906     7.731644
6538.17    29.115334     5.994771
6538.77    31.961151     6.787665
6539.37    29.930204     6.977182
6539.97    24.962446     7.430952
6540.57    23.148655    10.462555
6541.17    26.573647    14.675362
6541.77    26.383522    13.640849
6542.37    27.073782    10.956726
6542.98    31.976503     9.806865
6543.58    35.856483    11.212835
6544.18    34.848309    19.765652
6544.78    33.547173    16.795963
6545.38    30.603416    11.475234
6545.98    23.287226    17.949335
6546.58    20.337183    11.711205
6547.18    29.116451     7.631883
6547.78    37.322754     7.530015
6548.38    33.731632     7.138914
6548.98    28.784870    12.557036
6549.59    33.807102     9.668446
6550.19    36.520641     7.511435
6550.79    32.874149    12.571037
6551.39    34.196873    14.805257
6551.99    29.564655    15.816031
6552.59    26.375118    15.928014
6553.19    28.524288    17.908031
6553.79    29.960468    22.778250
6554.39    29.243118    22.354450
6554.99    24.958950    18.468319
6555.59    23.595901    15.182852
6556.20    31.165382    11.917929
6556.80    40.935375     5.877362
6557.40    39.344193     6.097906
6558.00    32.736145     8.484229
6558.60    29.723383     7.948552
6559.20    28.035089     8.627450
6559.80    28.302050    11.167587
6560.40    23.254400    11.954891
6561.00    17.740395    12.460091
6561.60    24.074566    14.977528
6562.20    34.821938    13.225943
6562.81    27.290005    14.904054
6563.41    14.938955    16.794464
6564.01    19.230505    12.885156
6564.61    29.170038    10.083537
6565.21    38.121151    11.121624
6565.81    33.568203    11.882503
6566.41    23.670170     9.595365
6567.01    27.123266     7.820441
6567.61    20.412363    10.665764
6568.21    24.322969     8.689410
6568.81    33.215820     6.621964
6569.42    25.314560    12.812820
6570.02    23.240587    13.389191
6570.62    25.872141    13.127110
6571.22    29.352951    12.169978
6571.82    30.906189     8.783940
6572.42    28.744511     7.146917
6573.02    33.414890     7.030478
6573.62    35.960491     9.862960
6574.22    33.937473    13.418512
6574.82    37.410511    12.379080
6575.42    42.762867     7.660607
6576.03    35.177250     9.175286
6576.63    21.330332    16.260450
6577.23    18.099520    21.080921
6577.83    25.209936    21.428986
6578.43    29.349369    19.283218
6579.03    30.772884    17.206219
6579.63    29.086359    15.742611
6580.23    22.991802    13.423675
6580.83    29.802816     9.871472
6581.43    37.033031     9.165059
6582.03    34.263641    10.033106
6582.64    30.009577     8.993276
6583.24    37.129711     8.095651
6583.84    39.064838     8.025398
6584.44    30.274942     7.811257
6585.04    19.958933     8.232645
6585.64    17.739376    10.014743
6586.24    22.050966     8.003040
6586.84    32.601906     6.923967
6587.44    33.840546     8.443164
6588.04    20.018623     9.001127
6588.64    18.955187     7.502980
6589.25    28.377420     6.015949
6589.85    41.980621     3.897945
6590.45    44.644985     3.299652
6591.05    27.630852     8.196401
6591.65    26.304264    12.614420
6592.25    30.602686    11.675809
6592.85    25.439444     8.198809
6593.45    20.035955     9.041827
6594.05    30.892467    14.554588
6594.65    30.761425    12.284765
6595.26    23.502190    13.112827
6595.86    23.456657    17.952879
6596.46    27.614914    12.543489
6597.06    29.024429    11.230242
6597.66    28.970594     9.081182
6598.26    26.880148     9.112824
6598.86    23.996590    12.970713
6599.46    25.391266     8.987165
6600.06    20.808113    14.302840
6600.66    23.776970    15.002338
6601.26    34.405155     6.905998
6601.87    35.173119     6.784840
6602.47    33.128540     9.613147
6603.07    34.420059     9.145250
6603.67    40.784729     8.008463
6604.27    39.911488    11.515835
6604.87    18.639420    17.508522
6605.47     8.968588    16.016895
6606.07    19.877563     9.249298
6606.67    32.929779     5.964286
6607.27    32.088104     7.985007
6607.87    26.893030     7.447668
6608.48    20.487968    11.945571
6609.08    20.189068    12.732110
6609.68    22.797899     7.627002
6610.28    20.518042     8.800969
6610.88    31.214676     9.111650
6611.48    38.742706     9.346364
6612.08    30.872496    10.203472
6612.68    20.915264     9.946028
6613.28    27.482986     8.409209
6613.88    30.111906     6.609966
6614.48    31.275469     5.659419
6615.09    30.906052     4.602337
6615.69    22.276373     4.855443
6616.29    18.133656    11.240347
6616.89    24.293682     8.928154
6617.49    28.011490     6.332480
6618.09    23.263971    10.439322
6618.69    20.196465    10.247929
6619.29    18.864157     7.472320
6619.89    16.117250     3.507839
6620.49    20.012114     2.205414
6621.09    32.813854     4.066421
6621.70    36.494732     5.115241
6622.30    23.307922    11.868304
6622.90    21.431681     9.398617
6623.50    28.316746     4.303583
6624.10    24.003067    10.993011
6624.70    25.353212    11.637199
6625.30    19.866768    15.615864
6625.90    18.361879    14.960604
6626.50    28.035007     8.118159
6627.10    32.345333     8.722425
6627.70    21.999313    12.883024
6628.31    23.716801     9.885721
6628.91    29.703815     7.008301
6629.51    23.976851    10.409951
6630.11    18.924456    11.188746
6630.71    24.111252     8.478499
6631.31    29.574820     5.113087
6631.91    31.701931     6.207542
6632.51    29.385334    11.295946
6633.11    20.189575    12.321611
6633.71    27.123178     9.749153
6634.31    26.906532     9.405396
6634.92    23.146484     9.561250
6635.52    35.274574     5.900856
6636.12    38.627956     3.672114
6636.72    27.199814     7.247568
6637.32    21.468313     8.784199
6637.92    27.583185     4.974398
6638.52    31.956028     2.972231
6639.12    30.411354     6.880901
6639.72    18.733047     9.095006
6640.32    17.553663     9.004119
6640.92    23.741724    12.143812
6641.53    16.225353    15.300954
6642.13    20.137566     4.330976
6642.73    28.091911     4.437922
6643.33    32.372768     7.676130
6643.93    35.762051     3.738087
6644.53    39.917080     4.962978
6645.13    37.429211     3.420249
6645.73    34.515736     3.903346
6646.33    33.688232     4.958140
6646.93    30.126339     5.349202
6647.53    24.075901     8.870761
6648.14    28.752110     6.989893
6648.74    31.124676     6.270034
6649.34    20.844845    11.499786
6649.94    14.803389    16.037914
6650.54    28.544413    13.210032
6651.14    18.740349    14.185335
6651.74    19.572937    10.713423
6652.34    26.895496     6.609843
6652.94    22.139133     6.739811
6653.54    28.789982     2.215258
6654.14    22.571434     5.086246
6654.75    22.152584     7.859463
6655.35    25.652206     8.567770
6655.95    25.714993     8.710691
6656.55    36.411652     4.708736
6657.15    20.561228    11.756300
6657.75    15.809371    11.562762
6658.35    23.894421     6.686432
6658.95    22.159657     9.016507
6659.55    27.666798     6.996819
6660.15    24.187010     9.652174
6660.76    22.153286     7.070057
6661.36    26.470840     4.705957
6661.96    30.292519    10.276457
6662.56    32.253738     9.484591
6663.16    27.825577     7.460162
6663.76    21.558134    10.494328
6664.36    18.373346    10.801865
6664.96    17.990416     5.877695
6665.56    19.268061     7.904411
6666.16    25.339123     5.323430
6666.76    22.426132     4.068553
6667.37    20.133593     4.973898
6667.97    22.300957     5.229334
6668.57     9.762913     8.033672
6669.17    15.119105     4.551248
6669.77    20.406769     2.917994
6670.37    18.767542     6.580378
6670.97    22.910404     8.975233
6671.57    30.591261     7.094729
6672.17    28.157614     8.326733
6672.77    19.367220     9.145314
6673.37    20.920883     9.242856
6673.98    27.908318     8.595023
6674.58    21.279221     5.109413
6675.18    25.154140     6.935004
6675.78    26.821400     8.950177
6676.38    24.268826     8.979019
6676.98    20.882694    10.553311
6677.58    16.704519    13.060036
6678.18    27.801090     9.542413
6678.78    26.310341    10.927452
6679.38    16.365206    10.353134
6679.98    17.341095     5.523540
6680.59    26.789867     6.940994
6681.19    30.394890     8.092524
6681.79    26.843357     7.190161
6682.39    21.577160     7.665688
6682.99    18.447840     9.170745
6683.59    19.061304     9.001130
6684.19    23.557545     9.189924
6684.79    21.925682     7.453758
6685.39    15.515190     7.679194
6685.99    19.366787     7.098838
6686.59    28.889809     5.189763
6687.20    17.480419    10.742206
6687.80    18.155298     6.913611
6688.40    26.620630     5.832825
6689.00    24.159197     7.987578
6689.60    14.285750     5.845608
6690.20    13.160686     6.751134
6690.80    10.773071     8.831703
6691.40    20.017151     8.038858
6692.00    28.231060     6.876582
6692.60    24.217392     8.405205
6693.20    22.928156     9.998063
6693.81    25.118784     8.107739
6694.41    21.752956     3.969140
6695.01    17.911718     3.848084
6695.61    21.752213     6.231554
6696.21    26.983664     6.015708
6696.81    21.059692     8.380494
6697.41    20.486919    10.386436
6698.01    23.096241     8.112062
6698.61    22.536728     5.898986
6699.21    23.436943     7.022103
6699.81    29.608892     6.082210
6700.42    28.878227     5.853553
6701.02    32.212299     1.857624
6701.62    26.820953     3.500827
6702.22    17.516094     8.862650
6702.82    29.656446     3.159663
6703.42    24.499123     6.066476
6704.02    14.491935    12.013435
6704.62    17.373993    11.962278
6705.22    19.478403     8.248845
6705.82     7.701557     9.155613
6706.42     7.560581    13.985273
6707.03    16.995157     9.041706
6707.63    20.789120     4.347947
6708.23    22.629597     5.724473
6708.83    28.419119     5.643562
6709.43    26.577642     2.848134
6710.03    19.171936     8.438550
6710.63    15.453089     9.333341
6711.23    28.539293     5.532005
6711.83    37.825493     5.374108
6712.43    21.959782     8.007789
6713.03    22.226559     8.335252
6713.64    22.363585     6.343694
6714.24    24.028425     6.975989
6714.84    31.782093     9.783039
6715.44    35.875031     9.785879
6716.04    30.572723     6.397038
6716.64    28.158987     4.017732
6717.24    27.409130     5.115358
6717.84    27.084684     5.924911
6718.44    30.094999     4.826472
6719.04    32.996113     5.001196
6719.65    27.823166     5.905696
6720.25    35.774010     5.635475
6720.85    40.039795     4.013704
6721.45    31.865498     4.976747
6722.05    27.045311     8.148837
6722.65    32.350975     6.352315
6723.25    37.642143     3.171632
6723.85    40.695770     4.837245
6724.45    28.392029     8.263599
6725.05    15.688153     7.153112
6725.65    24.147911     4.001955
6726.26    22.502687     7.322030
6726.86    23.684532     8.705696
6727.46    29.857040     6.334311
6728.06    36.222137     4.934984
6728.66    34.553093     6.214596
6729.26    24.986099     6.985076
6729.86    33.775307     6.998500
6730.46    28.364462     7.321567
6731.06    22.716082     9.060822
6731.66    28.391373     7.821689
6732.26    28.823448     5.211215
6732.87    28.960516    10.790510
6733.47    42.027931     7.151490
6734.07    42.921127     8.216036
6734.67    44.346085    11.247562
6735.27    53.947762     8.303940
6735.87    50.940971     5.968437
6736.47    46.742298     5.335514
6737.07    35.131390    11.197145
6737.67    37.600620    11.947718
6738.27    44.354046     5.420468
6738.87    37.927044     3.486344
6739.48    34.103123     7.989684
6740.08    31.356544     4.246143
6740.68    23.693596     8.407318
6741.28    14.551497    10.204838
6741.88    18.994644     6.326057
6742.48    28.717657     8.470492
6743.08    19.027847    11.956565
6743.68    30.415804     9.310340
6744.28    27.333122     6.116055
6744.88    19.772776     6.927663
6745.48    20.183756     9.624278
6746.09    20.780512     8.703534
6746.69    37.117996     3.347279
6747.29    30.534420     4.329570
6747.89    27.527742     4.434557
6748.49    29.457649     4.893905
6749.09    25.344151     5.397531
6749.69    24.999813     3.084270
6750.29    23.613539     9.332707
6750.89    20.080181     8.374909
6751.49    27.657097     6.559412
6752.09    37.958649     6.927094
6752.70    37.085468     5.702387
6753.30    35.034538     5.002540
6753.90    45.804169     5.925655
6754.50    52.036457     5.388001
6755.10    46.192066     4.876338
6755.70    36.814846     5.014401
6756.30    38.979324     5.036403
6756.90    47.068802     5.979257
6757.50    31.787430     7.909117
6758.10    44.503414     6.785899
6758.70    47.768051     5.581180
6759.31    39.487923     4.047935
6759.91    44.284439     1.877139
6760.51    40.118561     2.968197
6761.11    36.872055     4.462789
6761.71    38.249443     7.407717
6762.31    27.047686     7.107542
6762.91    16.997095     6.276313
6763.51    21.518953     6.657214
6764.11    20.071161     3.054017
6764.71    19.038403     2.888311
6765.31    25.773802     2.796132
6765.92    19.304306     4.199006
6766.52    12.122259     4.444220
6767.12    21.814568     3.156990
6767.72    26.995100     5.005089
6768.32    23.911488     2.409798
6768.92    21.102089     2.614082
6769.52    21.614939     2.478122
6770.12    21.615164     5.076332
6770.72    22.895517     8.848491
6771.32    27.003357     4.008067
6771.92    20.163074     3.548759
6772.53    18.963247     5.888592
6773.13    20.590151     4.461756
6773.73    19.078232     3.167878
6774.33    14.816955     5.437382
6774.93    11.002437     5.985682
6775.53    16.920673     5.000268
6776.13    30.117123     5.922873
6776.73    31.737467     4.675840
6777.33    23.305601     2.191105
6777.93    20.237366     4.029100
6778.53    23.020472     6.911643
6779.14    21.747156     2.254625
6779.74    26.509270     4.883078
6780.34    23.244747     5.259300
6780.94    26.187397     4.042669
6781.54    30.524513     5.082094
6782.14    18.273506     3.827415
6782.74    17.832857     2.098783
6783.34    18.356846     1.900329
6783.94    22.599571     2.316105
6784.54    22.518284     4.399157
6785.15    20.285120     6.177423
6785.75    23.123156     4.691141
6786.35    21.131134     3.885606
6786.95    19.875141     7.674771
6787.55    21.489626     5.854462
6788.15    25.289228     6.550436
6788.75    24.545477     6.860037
6789.35    17.765511     4.357587
6789.95    17.033678     9.009154
6790.55    26.329788     6.559939
6791.15    23.170891     5.369403
6791.76    25.822054     3.085864
6792.36    30.134205     2.781367
6792.96    26.254030     5.221351
6793.56    26.062561     5.076389
6794.16    25.493946     7.707619
6794.76    19.160786     8.570852
6795.36    19.757828     5.508928
6795.96    25.944077     3.674352
6796.56    19.160799     6.107906
6797.16     6.932277     7.881981
6797.76    17.588438     5.091563
6798.37    21.248320     4.814301
6798.97    28.302898     5.256997
6799.57    34.765999     4.087665
6800.17    28.791344     2.536487
6800.77    17.061460     5.297648
6801.37    16.209063     9.966724
6801.97    23.505541     4.567784
6802.57    22.315594     5.050714
6803.17    25.242855     6.425658
6803.77    28.240683     5.620621
6804.37    24.889084     4.586676
6804.98    22.948162     4.118505
6805.58    23.925375     5.935585
6806.18    23.886076     6.045443
6806.78    17.648811     6.173082
6807.38    13.982203     5.014237
6807.98    21.259418     3.855587
6808.58    26.362209     5.643549
6809.18    16.615816     9.149402
6809.78    13.028499    10.369180
6810.38    13.575784     5.660410
6810.98    15.503229     7.176877
6811.59    22.151587     5.359935
6812.19    25.572102     2.877171
6812.79    20.408068     8.302601
6813.39    18.096359     6.058252
6813.99    14.072154     6.526959
6814.59    17.495115     8.678835
6815.19    18.427931     8.399693
6815.79    16.948317     5.661373
6816.39    18.226643     3.847352
6816.99    19.178591     5.203494
6817.59    23.424049     6.221068
6818.20    28.654610     2.101536
6818.80    20.385160     6.121200
6819.40    18.763588     6.247252
6820.00    21.095425     2.650232
6820.60    20.336088     4.065886
6821.20    29.031088     4.072460
6821.80    22.514345     7.038944
6822.40    26.149393     3.607754
6823.00    27.816212     5.829014
6823.60    24.340511    11.006025
6824.20    18.030148     9.962503
6824.81    10.422369     8.267694
6825.41    14.905832    11.006119
6826.01    24.472015     9.079493
6826.61    12.161257    21.118862
6827.21    14.979286    24.748383
6827.81    25.856550    21.368357
6828.41    20.350574    23.886282
6829.01    19.346228    22.058289
6829.61    32.917225    14.965306
6830.21    22.754555    22.829624
6830.81    24.911118    20.818020
6831.42    27.662027    16.398632
6832.02    15.052166    23.662346
6832.62     9.150087    28.173809
6833.22    19.658024    19.268372
6833.82    19.925571    17.049299
6834.42    24.296532    15.441298
6835.02    24.075718    13.768091
6835.62    26.658600    11.447244
6836.22    25.584295     9.327119
6836.82    17.615955    10.975591
6837.42    17.107813    12.708586
6838.03    17.188965     7.131070
6838.63    14.856102     9.767812
6839.23    25.393349     6.091581
6839.83    27.053535     4.347420
6840.43    22.687038     6.245445
6841.03    23.445694     6.335254
6841.63    19.956772     9.279683
6842.23    21.179310    11.029738
6842.83    15.583141     8.834162
6843.43    18.941280     5.737036
6844.04    23.835409     4.759045
6844.64    18.478600     5.148171
6845.24    10.802127     4.767987
6845.84    12.528331     2.719192
6846.44    20.410320     0.892540
6847.04    25.673386     4.580500
6847.64    17.478386     3.058453
6848.24    13.765311     2.637990
6848.84    19.929293     4.306832
6849.44    23.082291     3.989388
6850.04    24.721933     3.917344
6850.65    32.006012     2.997060
6851.25    24.480141     4.455057
6851.85    23.123436     6.738437
6852.45    19.041121     6.195880
6853.05    19.793060     4.247058
6853.65    24.614544     4.274766
6854.25    18.519861     4.924560
6854.85    19.916210     3.986790
6855.45    21.364136     5.206911
6856.05    16.661472     2.127512
6856.65     9.754385     5.853417
6857.26    14.726745     9.176323
6857.86    20.918921     6.155607
6858.46    18.508625     4.793000
6859.06    26.039030     4.001391
6859.66    25.986425     6.862280
6860.26    27.765121    16.682928
6860.86    20.019520    19.762508
6861.46    13.120554    19.115578
6862.06    19.514057    20.433172
6862.66    23.016630    24.516514
6863.26    14.884466    28.796165
6863.87    18.836300    20.311581
6864.47    14.048880    25.390682
6865.07     9.459554    24.916903
6865.67    16.021101    11.274523
6866.27    11.442669     9.986462
6866.87     4.965317    14.536925
6867.47    19.549801     2.276013
6868.07    13.275658     4.725943
6868.67    13.871459     8.463993
6869.27     9.888607    11.062254
6869.87     3.440739    13.282688
6870.48     8.063651    11.118751
6871.08    12.442644     7.269936
6871.68     9.489173     8.489392
6872.28    18.093836     9.970844
6872.88    19.542137     4.694994
6873.48    14.651932     2.672289
6874.08    15.776942     4.084210
6874.68    16.093922     2.535206
6875.28    10.766797     3.679993
6875.88     9.774739     6.697867
6876.48    16.551916     2.904259
6877.09    19.153522     4.916215
6877.69    14.612213     4.054722
6878.29    15.241468     5.918977
6878.89    15.561919     7.525297
6879.49    18.537260     6.237854
6880.09    17.535526     6.653293
6880.69    13.128646     7.703509
6881.29    26.064892     5.003881
6881.89    20.019844     7.862914
6882.49    18.050426     5.639141
6883.09    15.379441     6.317866
6883.70    14.606828     9.509486
6884.30    16.113194     9.590943
6884.90    20.240343     5.565250
6885.50    26.771740     3.399710
6886.10    17.350475    11.673714
6886.70    16.517151    12.947152
6887.30    17.426792     6.530744
6887.90    15.214889     5.758995
6888.50     7.278345    10.030201
6889.10    12.801830    10.392093
6889.70    25.530241     7.653821
6890.31    11.575862     8.082827
6890.91    15.214301     9.113424
6891.51    19.492912     6.422762
6892.11    14.630189     6.993562
6892.71    14.294720     8.744781
6893.31    21.537706     6.239583
6893.91    27.152742     4.079121
6894.51    26.398281     6.217920
6895.11    19.924500     4.965640
6895.71    14.215164     1.927917
6896.31    16.034819     5.767642
6896.92    17.746876     7.810002
6897.52    14.737806     9.444460
6898.12     7.808062    13.993727
6898.72     9.891277    13.838871
6899.32    25.525314     7.444116
6899.92    28.108145     6.963891
6900.52    20.632839     9.472477
6901.12    20.897587    12.080385
6901.72    12.620230     9.652473
6902.32    14.858983     7.520791
6902.92    22.371357     8.252158
6903.53    15.307006     9.513326
6904.13    17.061560     9.656755
6904.73    28.862961     5.060510
6905.33    23.045895     6.887208
6905.93    23.501884     4.520098
6906.53    20.827841     6.267127
6907.13    20.805916     7.522608
6907.73    24.066111     3.497842
6908.33    23.539915     3.950478
6908.93    24.536825     9.265023
6909.54    17.044205     9.042604
6910.14    23.761353     9.619961
6910.74    24.448942    11.678866
6911.34    25.716406    11.493217
6911.94    19.027792    11.048473
6912.54     7.004617    10.413146
6913.14     9.948256     8.886954
6913.74    18.267942     8.934124
6914.34    15.250509     7.108942
6914.94    12.972441     5.402209
6915.54    13.837385     3.580515
6916.15    13.571758     7.002900
6916.75    16.271526     5.599908
6917.35    21.749561     1.788801
6917.95    20.847963     4.491775
6918.55    15.950765     6.299623
6919.15    18.065701     9.930981
6919.75    15.581675     8.514413
6920.35    30.924881     7.212009
6920.95    22.125244    11.614004
6921.55    15.223914    14.925953
6922.15    20.875168    15.362164
6922.76    15.138674    15.843566
6923.36    12.284315    15.052476
6923.96     5.937345    16.935789
6924.56    14.888629    17.355595
6925.16    14.040185    13.970925
6925.76    15.105871    12.292684
6926.36    20.734091    10.971312
6926.96    21.583055    10.014036
6927.56    13.874559     9.452954
6928.16     7.497328     6.808835
6928.76    16.966850     6.993645
6929.37    11.155950     7.758073
6929.97     8.674252     9.797333
6930.57    15.602307     8.863744
6931.17    21.775471     7.572215
6931.77    20.485813     5.807336
6932.37    15.898807     3.903585
6932.97    15.208520     5.190104
6933.57    17.010847     4.964573
6934.17    15.362532     3.061666
6934.77    12.387779     4.355988
6935.37    12.625780     6.532866
6935.98    17.076441     7.189662
6936.58    18.813210     6.908363
6937.18    11.642678    11.724550
6937.78     4.754340    16.705109
6938.38    11.664092     9.629656
6938.98    19.156929     7.908193
6939.58    11.379150     9.697789
6940.18    19.010674     9.859689
6940.78    19.087620     6.558550
6941.38    10.658484     7.903594
6941.98    13.554362     9.218765
6942.59    19.484636     5.657819
6943.19    16.599346     5.871734
6943.79    14.044302     3.062696
6944.39    13.724554     2.788715
6944.99    16.789246     5.242333
6945.59    19.610245    12.789216
6946.19    12.420331    13.887753
6946.79    14.399256     9.893340
6947.39    22.867382    14.544379
6947.99    13.798062    21.073921
6948.59    10.955003    15.876195
6949.20     8.325986    14.805275
6949.80     7.027147    16.382776
6950.40    14.158674    12.278871
6951.00    14.362809    11.802885
6951.60    18.476681     9.336828
6952.20    25.233208     4.212614
6952.80    18.413452     6.880986
6953.40    13.751657     8.897602
6954.00    12.939336     5.170251
6954.60    14.274137     3.818698
6955.20    10.917816     5.558631
6955.81    15.971294     5.802816
6956.41    18.996309     3.832649
6957.01    21.872875     5.722215
6957.61    26.867994     7.316302
6958.21    21.293755     2.596175
6958.81    20.004839     4.069116
6959.41    18.635094     7.699171
6960.01    12.387806     8.518190
6960.61    22.789669     5.148023
6961.21    21.773731     3.544160
6961.81    17.631670     1.292075
6962.42    18.396603     1.103154
6963.02    12.909946     5.521107
6963.62    15.996397     4.900862
6964.22    13.015270     4.949810
6964.82    15.847385     6.754997
6965.42    12.918140     7.211185
6966.02    13.803506     6.314888
6966.62    21.685787     6.065500
6967.22    19.687971     8.413102
6967.82    12.303834    11.824979
6968.43    13.919925    11.534646
6969.03    13.145105     6.807353
6969.63    21.297703     3.939326
6970.23    23.908060     6.618948
6970.83    16.913300     6.105734
6971.43    10.557158     7.941924
6972.03     7.800710     7.871786
6972.63     9.564613     6.075141
6973.23    15.268879     6.723470
6973.83    16.828640     5.009572
6974.43    13.038563     7.961265
6975.04    10.752772    11.076043
6975.64    15.906782     7.823634
6976.24    22.524364     7.323119
6976.84    20.163088     8.512389
6977.44    15.932501    12.962404
6978.04    15.830027    13.087599
6978.64    11.480326    10.185383
6979.24     8.483196    19.103868
6979.84    19.701654    11.409801
6980.44    16.941235     8.163390
6981.04    15.153816     6.481609
6981.65    12.753994     5.845230
6982.25     9.805535     5.890412
6982.85    11.055111     3.703667
6983.45    15.532338     2.014450
6984.05    19.334270     4.571060
6984.65    20.052872     7.032972
6985.25    21.140669     6.146137
6985.85    18.016069     4.997193
6986.45    22.403954     5.403460
6987.05    27.360304     2.752284
6987.65    17.842264     3.706985
6988.26    11.316599     5.856029
6988.86    14.508316     3.720066
6989.46     9.944286     3.998017
6990.06    11.983285     2.989542
6990.66     6.837785     1.956686
6991.26    14.882996     3.502248
6991.86    11.024694     4.556014
6992.46    12.275196     2.317204
6993.06     9.501740     7.040631
6993.66     8.541317     9.502525
6994.26    18.986652     2.171462
6994.87    10.589153     4.339452
6995.47    16.733255     5.060997
6996.07    25.104279     1.226854
6996.67    17.366463     3.500088
6997.27    14.395138     7.951030
6997.87    14.113378     5.396544
6998.47    16.295368     2.879111
6999.07    20.239912     4.038322
6999.67    15.794632     2.757058
7000.27    14.410877     3.153311
7000.87    21.929735     5.893885
7001.48    17.277863     6.265399
7002.08    22.410698     4.328520
7002.68    21.286795     4.505591
7003.28    15.588701     5.075085
7003.88    15.303085     5.241474
7004.48    20.315100     6.328295
7005.08    21.613440     5.517084
7005.68    10.836434     3.003040
7006.28    16.528845     5.760566
7006.88    17.999958     7.139110
7007.48    18.905975     5.974045
7008.09    12.699903     7.241185
7008.69    14.936922     4.032575
7009.29    19.840519     1.242448
7009.89    19.313629     4.717955
7010.49    26.492464     4.894647
7011.09    22.823523     5.049340
7011.69    15.687746     7.839857
7012.29    11.486519     7.884706
7012.89    17.779171     9.356570
7013.49    19.362040     5.368899
7014.09    11.600580     3.367951
7014.70    10.467190     4.956477
7015.30    15.333012     4.127860
7015.90    14.113670     4.879102
7016.50    15.997769     2.999360
7017.10    11.441342     4.016683
7017.70    11.424072     2.234103
7018.30    13.236185     3.371885
7018.90    15.971826     3.274715
7019.50    19.687944     1.268713
7020.10    16.248375     3.464928
7020.70    11.329695     5.787133
7021.31    16.077925     2.852701
7021.91    13.014074     3.022542
7022.51    15.843364     1.648540
7023.11    13.404457     7.114851
7023.71    15.908925     5.267062
7024.31    19.017887     1.905363
7024.91    19.338650     1.740374
7025.51    20.037167     0.761134
7026.11    16.769327     2.983038
7026.71    10.744592     7.015874
7027.31    10.940703     4.091728
7027.92    11.151753     4.827975
7028.52    10.873024     4.291139
7029.12    17.411263     4.389963
7029.72    19.569113     5.670939
7030.32    15.295339     5.984013
7030.92    11.821903     6.223310
7031.52     8.646570     7.075879
7032.12     9.124677     5.848088
7032.72    12.710001     2.208349
7033.32    15.646458     1.607441
7033.93    16.030617     4.304791
7034.53    11.579586     4.887191
7035.13    14.205248     2.745780
7035.73    15.279726     2.279756
7036.33    13.467483     2.849454
7036.93    22.772642     2.050789
7037.53    19.850452     2.997522
7038.13    14.814848     2.003043
7038.73    21.153706     3.034264
7039.33    18.012783     1.589556
7039.93    12.205740     5.930846
7040.54    12.987957     6.181320
7041.14    16.171883     3.271868
7041.74    16.530857     6.245759
7042.34    13.862550     3.534427
7042.94    13.042672     1.960360
7043.54     7.605071     6.899889
7044.14     6.514574     2.356027
7044.74     8.671179     1.614235
7045.34    12.630806     4.081359
7045.94    16.668970     3.411898
7046.54    20.420010     3.478144
7047.15    19.751505     6.780528
7047.75    12.872125     7.773368
7048.35    15.068581     3.981736
7048.95     9.484665     8.418468
7049.55    12.571152     7.616602
7050.15    13.725930     7.863326
7050.75    17.476408     5.850149
7051.35    18.101183     4.838034
7051.95    10.329411     6.696738
7052.55     9.021877     3.779989
7053.15    11.160788     3.971083
7053.76    14.370075     2.834047
7054.36     5.874082     6.702479
7054.96    10.480749     3.796494
7055.56    16.421087     1.217400
7056.16    14.831419     3.178573
7056.76     9.355218     6.273267
7057.36     8.424683     6.148767
7057.96    16.319958     1.798003
7058.56    14.011601     2.982636
7059.16    16.061619     2.275710
7059.76    12.763543     1.289411
7060.37    19.368645     6.174680
7060.97    19.243160     7.646632
7061.57    11.194813     5.250534
7062.17    10.207335     7.172264
7062.77    10.945774    10.161251
7063.37     8.811268     7.765800
7063.97     6.071078     4.964957
7064.57     8.408322     7.685771
7065.17    18.055643     6.200706
7065.77    18.078499     3.829193
7066.37    13.051360     4.954767
7066.98    13.942478     6.083574
7067.58    18.262587     4.361177
7068.18    20.982056     3.087976
7068.78    16.057806     4.993217
7069.38     8.024645     4.258313
7069.98    14.485551     2.878775
7070.58    13.710418     4.501268
7071.18    13.027264     4.294064
7071.78    12.137692     5.245135
7072.38     9.376157     6.597531
7072.98    13.483062     3.686558
7073.59    15.216149     4.039761
7074.19    18.339487     4.063841
7074.79     8.995450     3.067482
7075.39    12.721369     3.624748
7075.99    13.989000     4.238669
7076.59    15.398192     3.458177
7077.19    16.598557     3.121907
7077.79    15.562398     4.322320
7078.39    24.126987     4.982666
7078.99    18.126793     4.036894
7079.59    18.938564     3.090196
7080.20    15.525226     3.297579
7080.80    12.637781     6.518476
7081.40    14.240853     4.990438
7082.00    17.437843     3.545247
7082.60    23.014151     4.380084
7083.20    22.363642     2.275632
7083.80     6.910849     5.999664
7084.40     9.236935     2.243846
7085.00    12.064909     4.307028
7085.60    11.927991     4.362341
7086.20    16.319586     5.171963
7086.81    13.379056     5.065861
7087.41     8.539063     2.789494
7088.01    12.941023     4.321145
7088.61    11.205053     4.975066
7089.21    19.086309     3.999457
7089.81     9.328542     4.944520
7090.41    14.359243     3.746948
7091.01    17.539484     2.429977
7091.61    14.284047     1.299344
7092.21     8.314310     4.000299
7092.82     6.425790     9.362391
7093.42    22.176792     6.786352
7094.02    10.010901     4.998786
7094.62     6.602830     5.354749
7095.22    14.968809     1.900502
7095.82    16.530087     1.955517
7096.42    17.950491     2.644190
7097.02    16.326447     2.580002
7097.62     8.627617     3.749390
7098.22    12.114278     2.076166
7098.82    10.947526     4.953688
7099.43    13.968160     2.529055
7100.03    10.146164     2.382677
7100.63    11.091734     3.621286
7101.23    12.244504     4.595143
7101.83     9.776162     4.699028
7102.43    12.967787     2.429410
7103.03    14.807281     1.039567
7103.63    10.893459     2.901175
7104.23    16.689316     3.007464
7104.83    11.173756     3.682215
7105.43    11.321484     4.050620
7106.04    13.238969     4.152217
7106.64    11.479498     3.453923
7107.24    15.577264     1.873611
7107.84    13.678898     3.133717
7108.44     8.736149     5.061135
7109.04    18.097992     1.947280
7109.64    18.798096    -0.420847
7110.24    12.121997     2.113182
7110.84    12.289203     4.696795
7111.44    10.928062     5.316827
7112.04     3.621251     5.918250
7112.65     9.197054     3.941635
7113.25    16.650661     1.997132
7113.85    14.653235     3.541856
7114.45     8.831070     4.088486
7115.05     6.129999     4.285213
7115.65    14.149014     2.833876
7116.25    20.429150     1.075050
7116.85    10.982663     3.230994
7117.45     8.003637     3.990286
7118.05     9.956590     4.134846
7118.65    17.946346     2.963939
7119.26    20.457100     4.424123
7119.86    17.181480     4.030173
7120.46    13.797925     3.670116
7121.06    13.526964     4.433847
7121.66    15.946441     1.022122
7122.26    12.247896     4.788953
7122.86    11.432728     4.145777
7123.46     7.470140     5.848002
7124.06     6.280263     7.296663
7124.66     9.214744     4.125804
7125.26     5.678498     2.123379
7125.87     0.281684     4.150434
7126.47     8.894414     3.996577
7127.07    11.356955     4.938601
7127.67     8.823387     4.294813
7128.27    12.457624     3.991438
7128.87    15.618039     3.594433
7129.47    15.049526     2.895170
7130.07    17.892603     2.997348
7130.67    19.854691     1.885911
7131.27    14.961669    -0.102189
7131.87    20.401382     3.252609
7132.48    15.885326     3.561784
7133.08    13.897996     3.378083
7133.68    12.478291     3.816518
7134.28     7.024074     2.919411
7134.88    11.122484     2.955504
7135.48     9.044979     2.036653
7136.08    10.893280     2.545352
7136.68     8.327134     4.839276
7137.28     7.263497     3.417852
7137.88    10.523388     2.191820
7138.48    12.059990     4.707248
7139.09    13.561190     4.693984
7139.69    18.021023     1.993919
7140.29    11.719302     5.255001
7140.89     5.927932     7.047248
7141.49     8.818101     6.794508
7142.09    10.988503     4.554125
7142.69    12.414515     3.218893
7143.29    17.086855     5.111013
7143.89    12.181424     4.044333
7144.49     7.055027     2.946587
7145.09    10.341404     3.935865
7145.70    12.936180     2.841383
7146.30    13.599958     2.275641
7146.90    15.501579     2.816339
7147.50    14.509797     2.095513
7148.10    10.076921     3.961616
7148.70    10.513901     4.038211
7149.30    13.017314     4.185285
7149.90    15.737226     2.855541
7150.50    17.582657     2.044712
7151.10    14.048634     3.423763
7151.71     6.363594     3.946982
7152.31     5.823792     3.892730
7152.91    11.385693     6.920267
7153.51    17.321388     4.194153
7154.11    12.273418     3.791622
7154.71    10.824236     4.625907
7155.31    17.894943     4.712353
7155.91    14.472852     8.010699
7156.51     7.541440     5.182229
7157.11     4.532752     5.717546
7157.71     8.937649     5.188326
7158.32    15.062369     2.417611
7158.92    17.254993     0.537669
7159.52    13.777050     1.475385
7160.12     7.942251     4.027411
7160.72     8.813582     3.950532
7161.32     8.703696     5.044473
7161.92    11.440684     3.421773
7162.52    12.831811     4.679197
7163.12    14.447628     6.574172
7163.72    17.686443     2.677962
7164.32    10.334726     2.915597
7164.93     9.213899     4.038168
7165.53    12.799189     2.842987
7166.13    10.583846     1.197769
7166.73     7.965172     1.285466
7167.33     7.003899     3.745342
7167.93     3.089543     5.977300
7168.53    12.597262     2.562038
7169.13    15.709765     0.775861
7169.73     8.713705     2.099904
7170.33     6.963924     3.373493
7170.93    14.084814     2.562348
7171.54    16.785610     2.171704
7172.14    11.398922     4.908387
7172.74     9.893241     3.578305
7173.34     9.707919     2.674466
7173.94     0.000000     0.000000
