#Wavelength     Flux    Sky Spectrum 
#[Angstrom]   [Counts]     [Counts]
4545.04    48.880463     7.758508
4546.27    31.262552    13.365797
4547.50    27.281845    11.793995
4548.73    39.292091    10.211207
4549.96    49.271873    10.341581
4551.19    40.734543     8.108006
4552.43    22.797424    12.618159
4553.66    30.353008    11.689691
4554.89    37.106350    11.640994
4556.12    35.943520    10.825220
4557.35    33.766960     9.483865
4558.58    26.012087    14.988699
4559.81    24.391018    16.409023
4561.04    21.584192    13.638171
4562.28    30.273029    13.863375
4563.51    33.885315    14.680108
4564.74    24.856981    11.453778
4565.97    34.383801     9.045904
4567.20    40.958641     9.586923
4568.43    38.454216    10.972433
4569.66    37.280750    10.294027
4570.89    37.367550    10.757904
4572.12    35.001331    14.306283
4573.36    38.535637    14.233018
4574.59    43.297729    11.088651
4575.82    43.179604    13.562654
4577.05    34.566002    14.255076
4578.28    25.114605    15.785538
4579.51    34.390476    19.518454
4580.74    57.163742     8.653092
4581.97    34.215965    10.438122
4583.21    38.624512    12.443702
4584.44    49.289471    12.653082
4585.67    40.708500    14.041120
4586.90    44.578316    11.640244
4588.13    48.094654     8.941594
4589.36    43.272224    12.544449
4590.59    36.526218    15.937752
4591.82    35.573498    15.149294
4593.05    43.139629    14.020672
4594.29    50.008526    15.067204
4595.52    42.821991    14.998625
4596.75    35.324265    15.178782
4597.98    32.786236    13.726263
4599.21    40.505260    12.848112
4600.44    43.281548    10.708833
4601.67    28.999352     9.565530
4602.90    20.082233    15.061641
4604.14    24.779360     7.991831
4605.37    33.068592    11.170609
4606.60    38.786346    13.225051
4607.83    41.947693     9.147494
4609.06    44.514206    10.400294
4610.29    47.935371    11.050234
4611.52    50.107826     6.543515
4612.75    48.464100     7.423604
4613.98    52.645618    10.658031
4615.22    47.978855    10.548219
4616.45    36.382591    13.774050
4617.68    44.291000    19.896629
4618.91    50.470303     9.785549
4620.14    51.970238    13.844803
4621.37    47.809971    14.106891
4622.60    55.159534     7.647221
4623.83    49.915230    13.496099
4625.07    23.974045    22.763813
4626.30    47.288628    10.792774
4627.53    44.217686    12.732834
4628.76    35.264664    17.930199
4629.99    42.271801    13.445385
4631.22    43.699371    10.547186
4632.45    33.225086    15.491373
4633.68    37.727058    13.207083
4634.91    46.047340     5.632482
4636.15    47.133629     7.889024
4637.38    48.386333    11.092154
4638.61    47.542469    13.962439
4639.84    45.489853    18.491989
4641.07    48.959019    15.730682
4642.30    42.917316     9.430458
4643.53    39.288952    10.469995
4644.76    38.685005    14.940514
4646.00    40.071724    15.568927
4647.23    44.767155    13.572189
4648.46    46.509209    15.626036
4649.69    41.827358    19.187441
4650.92    50.973003    11.137284
4652.15    46.591080    13.545851
4653.38    47.413998    19.233309
4654.61    56.219685    15.508941
4655.84    55.443703    10.858883
4657.08    57.247715    13.010055
4658.31    65.499321    11.761002
4659.54    42.344856    16.250477
4660.77    49.476669    14.310871
4662.00    54.614147    15.610457
4663.23    41.714817    17.571796
4664.46    51.590881    11.040932
4665.69    48.286133    16.882648
4666.93    47.664459    11.641932
4668.16    48.475506     9.419593
4669.39    50.518574    13.632610
4670.62    52.312904    16.739134
4671.85    56.902931    15.315290
4673.08    62.868702    13.032399
4674.31    51.187138    17.419645
4675.54    62.744263    17.594936
4676.77    60.232979    11.823695
4678.01    57.567177    10.974942
4679.24    61.279331    12.552965
4680.47    53.297821    10.074384
4681.70    62.930355    12.967754
4682.93    52.971359     9.894507
4684.16    54.821312     9.041459
4685.39    57.257851    15.144197
4686.62    53.192589    17.363747
4687.86    55.947346    15.370193
4689.09    57.911148    19.001604
4690.32    54.162369    14.043002
4691.55    67.282341     9.649335
4692.78    63.826626    13.855349
4694.01    49.512024    21.113411
4695.24    49.498352    20.500523
4696.47    53.862270    13.423301
4697.70    45.677177    13.727059
4698.94    37.407547    18.168783
4700.17    40.949352    13.254757
4701.40    49.823181    15.850691
4702.63    45.778938    21.491541
4703.86    33.571556    17.023176
4705.09    36.209763    15.008796
4706.32    45.392033    16.729313
4707.55    53.997570    17.355188
4708.79    48.450947    15.597578
4710.02    50.077770    12.413012
4711.25    60.571789    13.098566
4712.48    58.700687    14.423927
4713.71    57.981998     7.065107
4714.94    56.669952    14.414925
4716.17    47.030827    21.023325
4717.40    49.172298    19.096371
4718.63    57.740234    14.228656
4719.87    51.812531    13.503556
4721.10    46.132664    17.021225
4722.33    60.018852    15.270792
4723.56    53.648533    15.523385
4724.79    50.165123    15.886541
4726.02    53.858856    10.974259
4727.25    48.646217    12.676143
4728.48    48.246628    21.982065
4729.71    64.708038    13.468715
4730.95    53.791027    15.532455
4732.18    55.413738    18.079359
4733.41    68.195175    14.710909
4734.64    72.656570    10.990532
4735.87    68.639267    11.481805
4737.10    58.068901    14.002106
4738.33    48.856403    12.475735
4739.56    49.076473    19.316210
4740.80    59.000298    18.066881
4742.03    64.836563    13.183335
4743.26    60.666370    15.667486
4744.49    56.899685    15.849851
4745.72    57.741680    12.304738
4746.95    58.452934    11.759711
4748.18    49.757267    12.161829
4749.41    40.786385    11.682648
4750.64    55.718494    10.585493
4751.88    79.939384    10.081960
4753.11    70.485428    11.877962
4754.34    69.567429    13.702013
4755.57    59.440899    14.867616
4756.80    40.749866    18.398205
4758.03    43.594448    16.872202
4759.26    64.966133    10.482151
4760.49    66.984291    13.009583
4761.73    57.337334    15.916803
4762.96    54.116768    14.377273
4764.19    48.567646    10.948243
4765.42    50.521439    12.989384
4766.65    61.908405    15.603573
4767.88    65.189026     9.689333
4769.11    66.858917     9.021389
4770.34    55.585434    19.874268
4771.57    60.209000    19.374432
4772.81    63.165104    15.675416
4774.04    60.532177    14.676641
4775.27    66.566483    10.044505
4776.50    56.846569    13.969028
4777.73    70.120857     9.689213
4778.96    62.326466    12.606925
4780.19    59.130234    17.392036
4781.42    66.875244    14.560184
4782.66    56.682369    12.136377
4783.89    57.199139    15.827573
4785.12    74.450912    16.307552
4786.35    60.111931    15.006008
4787.58    50.961128    12.282921
4788.81    62.684547    13.629457
4790.04    65.901505    19.650370
4791.27    64.923630    20.043976
4792.50    69.142014    17.851852
4793.74    62.943817    13.956638
4794.97    60.762512    17.360970
4796.20    67.438141    21.100088
4797.43    66.762962    18.917311
4798.66    61.911079    19.041224
4799.89    76.869331    13.656372
4801.12    76.105026    14.281309
4802.35    72.474327    13.820953
4803.59    71.645065    14.333690
4804.82    71.099106    16.547039
4806.05    79.977280    11.016904
4807.28    77.164139    11.744442
4808.51    73.167778    11.223856
4809.74    70.271751    12.120153
4810.97    76.651581    12.367460
4812.20    89.595497    11.329781
4813.43    85.105064    15.968858
4814.67    64.810722    19.444328
4815.90    62.209766    21.500546
4817.13    71.559364    18.126389
4818.36    77.705956    14.281632
4819.59    78.995346    15.247401
4820.82    75.157959    15.996536
4822.05    67.072037    15.956784
4823.28    80.959846    16.574614
4824.52    77.653549    17.614691
4825.75    54.666138    20.413610
4826.98    55.937836    23.040539
4828.21    80.427567    20.170280
4829.44    77.880417    16.908524
4830.67    61.792572    19.789740
4831.90    55.699631    19.935316
4833.13    57.276371    15.819208
4834.36    62.667713    15.163833
4835.60    77.424377    16.957705
4836.83    76.457260    16.165821
4838.06    74.283905    16.876451
4839.29    78.638290    18.999853
4840.52    74.510880    18.243843
4841.75    62.712036    16.011730
4842.98    69.158371    17.178850
4844.21    71.538788    13.298762
4845.45    69.955505    16.578405
4846.68    68.104805    17.784786
4847.91    72.404861    13.759309
4849.14    78.802155    16.064369
4850.37    65.532799    15.951944
4851.60    67.686852    17.151104
4852.83    82.019928    14.904017
4854.06    91.524307    15.700832
4855.29    81.901421    20.130005
4856.53    62.038052    17.057411
4857.76    78.590622    16.908703
4858.99    86.206879    16.844187
4860.22    85.181747    21.659924
4861.45    81.027885    24.388836
4862.68    70.207420    18.434538
4863.91    71.257729    17.698944
4865.14    81.408302    20.810802
4866.38    90.549614    13.756182
4867.61    84.669266    14.158496
4868.84    72.049530    20.948078
4870.07    74.253036    13.837916
4871.30    83.438461    13.481951
4872.53    79.475578    15.806638
4873.76    73.556252    15.361504
4874.99    77.801918    18.016499
4876.22    90.111824    20.351137
4877.46    96.590347    13.082880
4878.69    77.710251    20.069580
4879.92    72.339066    26.238760
4881.15    78.190613    21.441034
4882.38    82.712601    13.320086
4883.61    82.472122    12.122801
4884.84    64.730835    17.244513
4886.07    76.420258    18.978521
4887.31    78.057449    19.701561
4888.54    60.049038    21.711769
4889.77    61.303715    20.305506
4891.00    83.878021    13.444860
4892.23    84.900047    11.422266
4893.46    86.785843    14.333248
4894.69    81.600937    16.763922
4895.92    71.752579    20.537159
4897.15    81.106827    24.974005
4898.39    87.492256    17.691034
4899.62    88.779785    21.328014
4900.85    92.733971    23.255325
4902.08    83.646225    21.481779
4903.31    67.040680    25.119644
4904.54    85.915703    21.875290
4905.77    99.672287    15.737932
4907.00    96.189682    17.256348
4908.24    88.452072    22.868389
4909.47    82.847801    23.748203
4910.70    78.769081    19.413441
4911.93    87.085167    13.925449
4913.16    82.124924    18.805727
4914.39    76.908325    24.419754
4915.62    83.453339    23.882963
4916.85    80.020035    24.000084
4918.08    63.123833    22.779646
4919.32    86.550819    18.748007
4920.55    101.200279    19.661621
4921.78    91.663330    23.622803
4923.01    90.642914    21.781141
4924.24    79.775909    17.429932
4925.47    83.992805    17.954031
4926.70    82.746582    23.654358
4927.93    85.197754    25.304743
4929.17    96.681740    19.440668
4930.40    84.084984    16.815664
4931.63    98.649445    20.420883
4932.86    96.062279    22.704781
4934.09    93.239197    16.518408
4935.32    109.305679     9.987168
4936.55    93.276039    18.536007
4937.78    80.416504    31.039280
4939.01    94.196686    31.079550
4940.25    114.229370    25.216663
4941.48    113.134148    22.447527
4942.71    95.311707    19.097710
4943.94    88.151436    20.688137
4945.17    99.450623    24.164740
4946.40    116.637718    19.364624
4947.63    115.143410    14.582031
4948.86    92.839645    25.310829
4950.09    96.035255    29.154564
4951.33    105.563278    23.111656
4952.56    106.405136    17.321316
4953.79    98.960777    20.335732
4955.02    95.154205    26.129799
4956.25    119.307938    18.217953
4957.48    118.126572    21.829737
4958.71    110.020134    24.909239
4959.94    116.188011    23.120947
4961.18    106.177063    34.588074
4962.41    90.982605    31.169647
4963.64    102.554031    22.688976
4964.87    108.704826    21.864492
4966.10    90.064827    26.798981
4967.33    83.639694    29.843704
4968.56    96.116158    29.823318
4969.79    116.415512    21.150387
4971.02    119.371544    12.924418
4972.26    102.513710    19.079624
4973.49    90.838974    32.704750
4974.72    85.447777    25.008881
4975.95    86.312737    24.372793
4977.18    93.230453    34.227844
4978.41    101.829536    38.188427
4979.64    104.394089    35.306446
4980.87    98.817200    22.724564
4982.11    97.279030    18.694752
4983.34    99.259193    21.175005
4984.57    100.276276    18.815351
4985.80    106.664055    18.534698
4987.03    113.518845    22.221123
4988.26    121.961777    21.580547
4989.49    121.891556    18.750252
4990.72    114.033745    20.025045
4991.95    121.311516    20.487173
4993.19    108.211105    24.318741
4994.42    96.259071    25.890001
4995.65    101.444244    23.538849
4996.88    105.899109    24.830957
4998.11    108.739471    30.423655
4999.34    112.997261    22.667013
5000.57    101.951744    16.828926
5001.80    89.451988    22.882095
5003.04    107.955917    24.206953
5004.27    119.144226    22.005157
5005.50    115.638786    28.329166
5006.73    116.063782    28.240143
5007.96    120.625679    20.173292
5009.19    108.704651    30.807375
5010.42    106.937576    27.979355
5011.65    110.107674    22.372862
5012.88    107.983383    24.951387
5014.12    103.003548    27.998476
5015.35    100.711327    29.528263
5016.58    109.800362    31.408567
5017.81    115.563324    28.829607
5019.04    105.213013    23.423914
5020.27    91.391716    23.760269
5021.50    95.778389    26.740210
5022.73    92.907021    29.663675
5023.97    97.561447    27.047153
5025.20    115.267090    21.960075
5026.43    106.615479    26.062904
5027.66    115.341499    28.128708
5028.89    116.287300    28.061401
5030.12    108.418732    26.016449
5031.35    116.936890    22.912907
5032.58    108.721230    29.201309
5033.81    107.896881    30.781380
5035.05    125.338692    26.113913
5036.28    141.821014    24.080036
5037.51    135.848709    26.669077
5038.74    116.650574    26.749960
5039.97    107.211555    25.273357
5041.20    102.503777    25.159081
5042.43    93.016838    26.943752
5043.66    100.308205    29.575998
5044.90    99.599213    29.595015
5046.13    103.578003    26.533934
5047.36    115.267227    26.547583
5048.59    109.958023    32.069225
5049.82    120.586319    24.908279
5051.05    136.286865    16.793592
5052.28    128.546082    19.849394
5053.51    105.245468    27.871330
5054.74    111.239204    27.305653
5055.98    101.335442    23.614164
5057.21    90.771622    23.711840
5058.44    102.027031    26.084135
5059.67    107.290741    25.789907
5060.90    110.494751    28.936382
5062.13    100.242249    32.316811
5063.36    96.676445    31.359562
5064.59    116.501884    27.253466
5065.83    108.683945    24.609985
5067.06    111.852982    23.104952
5068.29    120.133080    23.442024
5069.52    118.416138    22.780472
5070.75    133.241821    17.630072
5071.98    122.518425    25.387207
5073.21    120.597038    29.317116
5074.44    135.567780    22.115377
5075.67    123.313103    20.859612
5076.91    111.514030    22.508087
5078.14    115.252686    26.715576
5079.37    132.279114    28.795111
5080.60    145.029602    24.200163
5081.83    131.862823    20.135309
5083.06    119.455482    27.107597
5084.29    122.942055    34.102448
5085.52    130.038605    31.822607
5086.76    126.499374    30.274704
5087.99    135.976624    28.822392
5089.22    142.293015    27.546745
5090.45    134.767914    28.342783
5091.68    128.775070    30.854609
5092.91    125.587608    30.272860
5094.14    139.136581    30.622271
5095.37    147.620804    28.671831
5096.60    128.986496    23.878330
5097.84    123.273567    31.754303
5099.07    130.299454    32.057003
5100.30    146.318542    23.398277
5101.53    156.891891    21.058372
5102.76    136.446671    28.032061
5103.99    122.473885    31.892118
5105.22    122.553452    29.659952
5106.45    121.600029    25.667198
5107.69    117.361832    23.216610
5108.92    126.480347    22.972216
5110.15    130.007614    22.623119
5111.38    126.437706    20.581650
5112.61    133.693314    19.563580
5113.84    128.383881    25.334797
5115.07    125.116234    28.803570
5116.30    129.836945    26.248962
5117.53    128.598083    23.999197
5118.77    120.220451    25.588280
5120.00    122.717674    25.303738
5121.23    129.831390    27.741655
5122.46    128.045364    33.991985
5123.69    130.428558    27.766769
5124.92    139.604553    22.908672
5126.15    150.014206    23.046453
5127.38    146.741074    23.004829
5128.62    122.840561    24.227480
5129.85    130.383621    27.167168
5131.08    146.785965    27.338369
5132.31    137.068527    23.826342
5133.54    124.789108    22.738733
5134.77    136.317871    24.433586
5136.00    155.714005    24.551563
5137.23    154.532776    25.477909
5138.46    131.263672    32.338104
5139.70    123.511658    30.859600
5140.93    142.027023    32.430222
5142.16    158.075363    36.690838
5143.39    145.094193    28.302982
5144.62    144.306168    26.397795
5145.85    152.376404    26.063370
5147.08    153.642715    24.066854
5148.31    146.152390    27.366510
5149.54    131.557404    29.648678
5150.78    127.269165    27.041868
5152.01    132.625900    25.336340
5153.24    135.060226    29.655529
5154.47    143.941650    29.431261
5155.70    135.849350    33.370125
5156.93    113.189957    37.907082
5158.16    112.079117    34.054970
5159.39    146.949310    37.951927
5160.63    154.110657    35.977821
5161.86    131.522232    27.874113
5163.09    129.299118    26.938923
5164.32    135.951401    26.695936
5165.55    134.454956    24.871279
5166.78    126.607628    25.828413
5168.01    125.503227    31.511143
5169.24    134.290085    32.613331
5170.47    150.546234    27.841953
5171.71    160.575500    25.264204
5172.94    151.111969    29.617992
5174.17    130.469971    30.060381
5175.40    122.711060    27.623030
5176.63    132.953705    25.673359
5177.86    143.695328    24.987616
5179.09    139.159546    25.287195
5180.32    135.527222    24.056150
5181.56    140.086044    26.333593
5182.79    141.635208    33.748215
5184.02    133.411819    29.722677
5185.25    136.392197    26.802423
5186.48    145.476120    29.248272
5187.71    136.445358    30.367111
5188.94    121.074471    36.890324
5190.17    133.662567    34.618515
5191.40    150.632050    24.811649
5192.64    130.028442    24.279669
5193.87    125.186943    29.916191
5195.10    134.718872    32.119553
5196.33    138.948303    32.488319
5197.56    135.435165    37.555138
5198.79    136.661133    36.320644
5200.02    143.581635    35.582893
5201.25    150.662292    38.091274
5202.49    149.744797    35.905815
5203.72    130.329254    31.809130
5204.95    112.572769    29.200232
5206.18    110.092407    27.840502
5207.41    114.452538    26.546267
5208.64    127.038986    30.079657
5209.87    135.813553    26.802547
5211.10    132.706406    21.229572
5212.33    127.123871    34.918030
5213.57    131.263229    36.511898
5214.80    141.375183    29.308838
5216.03    142.983734    31.011492
5217.26    128.525696    36.788372
5218.49    121.869217    33.079868
5219.72    134.759354    29.272207
5220.95    148.149628    33.906891
5222.18    131.119644    31.893604
5223.42    126.171959    31.906805
5224.65    135.139450    32.357048
5225.88    134.003510    26.564915
5227.11    136.454437    23.742149
5228.34    131.697067    28.573338
5229.57    130.948425    31.513699
5230.80    148.967834    26.093798
5232.03    151.511185    31.258041
5233.26    145.537384    32.807556
5234.50    144.026306    29.153877
5235.73    148.415405    33.879406
5236.96    162.861649    29.003376
5238.19    161.104446    27.367060
5239.42    145.662399    31.890245
5240.65    153.493591    23.466089
5241.88    160.067993    19.587393
5243.11    144.682220    25.995630
5244.35    126.983658    29.047825
5245.58    146.740906    14.829370
5246.81    151.013733    12.326584
5248.04    144.524353    22.693033
5249.27    154.508804    28.731497
5250.50    150.400299    31.117868
5251.73    131.676163    37.008644
5252.96    127.281136    39.182182
5254.19    153.682663    29.430748
5255.43    168.031296    25.616920
5256.66    142.289963    32.127075
5257.89    114.883781    39.316708
5259.12    140.732742    36.496834
5260.35    156.257050    30.693769
5261.58    144.247833    26.939804
5262.81    125.652649    28.118353
5264.04    121.982689    33.721260
5265.28    139.816177    30.011568
5266.51    145.081711    24.462076
5267.74    125.612411    26.867779
5268.97    130.792679    26.897903
5270.20    131.244385    28.496677
5271.43    131.609741    31.258417
5272.66    148.966339    29.654947
5273.89    131.029480    25.184059
5275.12    120.878876    24.704584
5276.36    136.086075    27.027664
5277.59    137.558807    25.268064
5278.82    136.179489    26.166592
5280.05    124.234055    28.738888
5281.28    110.984909    29.003513
5282.51    129.357803    27.808172
5283.74    128.598068    29.793554
5284.97    119.686852    32.201893
5286.21    136.897827    31.124601
5287.44    147.699203    30.847569
5288.67    136.099274    31.139282
5289.90    121.335976    33.717628
5291.13    131.543640    37.635761
5292.36    151.771988    29.132551
5293.59    161.533249    21.728613
5294.82    153.584152    22.992111
5296.05    140.313965    19.980896
5297.29    144.398224    19.382374
5298.52    156.374924    27.135788
5299.75    151.639267    38.390919
5300.98    127.645355    40.225948
5302.21    124.006767    41.108788
5303.44    135.546051    41.482109
5304.67    130.991501    35.745602
5305.90    138.486084    35.742920
5307.14    138.640396    36.753613
5308.37    126.913048    34.987518
5309.60    136.210190    35.586483
5310.83    146.485703    31.714554
5312.06    144.050613    31.263283
5313.29    141.035202    38.669537
5314.52    161.117493    36.186508
5315.75    168.889786    30.408751
5316.98    165.987473    29.102991
5318.22    177.518311    30.809711
5319.45    160.046326    30.713472
5320.68    141.803879    34.513351
5321.91    147.050751    38.977360
5323.14    149.387985    30.221455
5324.37    156.501740    25.556761
5325.60    155.061661    27.307228
5326.83    137.276947    29.271015
5328.07    140.397064    37.023518
5329.30    157.352982    36.939686
5330.53    162.166382    32.093544
5331.76    141.879913    40.109554
5332.99    121.907776    47.740070
5334.22    128.357376    42.170223
5335.45    158.752289    29.287132
5336.68    176.829681    29.211428
5337.91    165.972519    24.873363
5339.15    139.181412    25.166981
5340.38    127.232162    43.857117
5341.61    150.361984    43.142090
5342.84    175.404465    34.601395
5344.07    170.274094    34.004368
5345.30    144.602966    33.341217
5346.53    144.887115    32.444626
5347.76    153.566406    30.051886
5348.99    139.663925    27.002754
5350.23    134.508041    29.124056
5351.46    149.739243    26.198790
5352.69    155.325012    24.783873
5353.92    126.400009    38.612869
5355.15    136.571136    38.500385
5356.38    155.436707    32.123363
5357.61    140.050385    34.812542
5358.84    131.840927    35.792091
5360.08    147.365158    33.495361
5361.31    155.111313    33.509354
5362.54    130.667679    37.268169
5363.77    136.194153    31.519485
5365.00    134.110306    28.771160
5366.23    108.071213    33.989368
5367.46    118.684418    30.864250
5368.69    122.542679    32.030621
5369.92    120.929886    34.705410
5371.16    136.304321    30.278759
5372.39    125.896172    32.844604
5373.62    113.941078    34.663990
5374.85    120.266670    31.980745
5376.08    124.742332    34.169186
5377.31    124.337990    34.879185
5378.54    126.278999    32.236916
5379.77    133.332138    30.772659
5381.01    134.553329    34.649746
5382.24    134.534760    37.790871
5383.47    143.026535    35.721874
5384.70    157.667877    31.541752
5385.93    146.915207    32.138306
5387.16    127.531769    34.130581
5388.39    128.891068    32.292862
5389.62    140.251465    30.528685
5390.85    143.979218    32.691914
5392.09    143.457169    36.140118
5393.32    152.027359    35.390965
5394.55    148.708694    34.480309
5395.78    144.580536    29.634663
5397.01    154.042725    22.960112
5398.24    161.345230    29.980911
5399.47    166.736816    34.709885
5400.70    163.666214    31.786182
5401.94    146.750610    31.910528
5403.17    147.180252    31.627352
5404.40    161.224716    34.951843
5405.63    165.595398    40.946022
5406.86    150.973770    36.405693
5408.09    141.693527    34.339874
5409.32    146.846725    37.035370
5410.55    150.517990    34.557724
5411.78    139.982300    34.317383
5413.02    139.297134    32.711914
5414.25    157.164917    28.910896
5415.48    158.197876    34.500145
5416.71    172.467712    36.563633
5417.94    191.291138    32.753330
5419.17    179.150589    32.484989
5420.40    183.700577    28.693363
5421.63    195.661957    26.003325
5422.87    188.233276    28.800869
5424.10    173.208969    29.826796
5425.33    162.971222    33.801083
5426.56    159.805725    38.050205
5427.79    160.335739    34.400562
5429.02    168.832718    31.391954
5430.25    173.995422    34.788742
5431.48    163.786880    39.992336
5432.71    145.330872    35.935890
5433.95    144.290726    37.931549
5435.18    165.198227    42.741695
5436.41    187.259064    33.159668
5437.64    196.140335    32.379322
5438.87    184.593384    36.039097
5440.10    170.281052    31.573570
5441.33    190.411453    29.526260
5442.56    180.312317    33.675735
5443.80    148.778687    38.042088
5445.03    175.472855    35.524223
5446.26    186.843613    36.550392
5447.49    172.920486    39.136105
5448.72    168.037537    35.871937
5449.95    170.077881    30.111370
5451.18    178.623459    30.428211
5452.41    189.272217    37.222569
5453.64    190.740479    40.721283
5454.88    176.204300    36.244091
5456.11    174.177155    31.861515
5457.34    197.423248    40.451839
5458.57    189.020966    63.263176
5459.80    193.074158    71.115112
5461.03    206.107849    63.986496
5462.26    149.602966    78.028244
5463.49    129.460617    81.639755
5464.73    162.831085    68.739403
5465.96    184.189026    58.354156
5467.19    190.841003    47.581570
5468.42    172.749954    40.253006
5469.65    141.894928    38.116901
5470.88    141.277359    34.951237
5472.11    156.378662    34.263992
5473.34    170.741730    37.541401
5474.57    181.364243    40.362484
5475.81    183.795517    35.846069
5477.04    179.037766    27.657242
5478.27    174.072388    23.919462
5479.50    175.009186    28.255764
5480.73    161.088043    35.105793
5481.96    150.875305    35.614296
5483.19    181.132675    27.919079
5484.42    193.314850    30.941536
5485.66    187.519592    39.393089
5486.89    188.046478    41.527542
5488.12    174.680634    46.280720
5489.35    171.199860    47.100143
5490.58    191.366318    40.903522
5491.81    211.807953    36.359005
5493.04    207.798950    37.072025
5494.27    190.433914    37.572430
5495.50    184.383255    33.450638
5496.74    184.057068    34.512550
5497.97    192.483902    37.943096
5499.20    200.276413    39.856964
5500.43    184.267548    42.630604
5501.66    179.593521    38.316902
5502.89    200.062225    29.108200
5504.12    219.234818    26.233547
5505.35    204.860626    31.397028
5506.59    193.022552    38.912704
5507.82    212.833099    42.057552
5509.05    218.838806    39.240894
5510.28    207.745209    35.734665
5511.51    196.784225    35.012985
5512.74    199.667923    35.762409
5513.97    209.038635    36.056549
5515.20    214.313385    36.062778
5516.43    208.606964    37.427025
5517.67    192.689011    40.681694
5518.90    181.649384    39.542404
5520.13    190.270416    34.111576
5521.36    216.988907    33.484863
5522.59    227.983154    30.817698
5523.82    213.253082    30.809534
5525.05    197.292633    40.128777
5526.28    212.285263    36.028820
5527.52    216.510742    29.778952
5528.75    186.289322    35.397003
5529.98    185.071075    37.102726
5531.21    186.850540    37.789669
5532.44    177.901154    41.152802
5533.67    183.742386    42.862667
5534.90    185.262894    38.365578
5536.13    180.233307    33.642258
5537.36    176.654144    36.086220
5538.60    166.570435    39.984219
5539.83    173.870575    40.747334
5541.06    195.645813    39.040321
5542.29    187.007156    39.809662
5543.52    180.851151    42.579556
5544.75    188.675308    43.942200
5545.98    189.602234    42.214287
5547.21    187.881256    43.223801
5548.44    188.564514    47.109940
5549.68    190.918472    47.023594
5550.91    189.264709    35.381851
5552.14    185.369980    29.857470
5553.37    187.136124    36.092442
5554.60    198.292053    39.423691
5555.83    195.553192    44.816475
5557.06    186.522720    47.622486
5558.29    188.170822    41.249180
5559.53    176.567215    39.466602
5560.76    175.864456    39.490753
5561.99    196.837097    37.871326
5563.22    198.152176    43.007923
5564.45    194.406647    50.387104
5565.68    198.345200    54.084274
5566.91    205.642929    52.060272
5568.14    224.751282    45.463970
5569.37    225.817902    48.710812
5570.61    193.389435    60.103622
5571.84    189.342682    54.755833
5573.07    213.834412    198.326141
5574.30    237.493744    564.543274
5575.53    238.602631    982.920532
5576.76    216.049133    1263.043213
5577.99    168.912384    1290.575684
5579.22    110.824974    1089.997314
5580.46    104.121674    862.857239
5581.69    156.378220    650.086975
5582.92    219.524353    422.880096
5584.15    230.134216    231.410522
5585.38    225.483932    114.732834
5586.61    226.937073    69.856773
5587.84    206.301086    56.858604
5589.07    201.562820    52.799084
5590.30    213.192825    48.100651
5591.54    211.333038    42.741371
5592.77    201.488922    42.299519
5594.00    198.889389    44.616714
5595.23    202.522552    43.547905
5596.46    190.402969    36.759079
5597.69    189.093307    36.728931
5598.92    204.515991    43.141144
5600.15    209.059067    42.113205
5601.39    204.631882    40.119106
5602.62    196.132706    38.423820
5603.85    187.288208    35.191410
5605.08    184.300903    36.795406
5606.31    181.376465    39.542164
5607.54    181.187927    39.089657
5608.77    198.748337    38.690384
5610.00    203.145813    42.694244
5611.23    186.798279    45.884586
5612.47    173.606842    40.394405
5613.70    164.671295    39.843048
5614.93    167.276535    41.871666
5616.16    180.785950    38.533730
5617.39    178.994049    37.848808
5618.62    184.404556    37.436310
5619.85    201.740494    36.844139
5621.08    193.899124    42.064247
5622.32    196.569855    40.483635
5623.55    214.049072    34.909451
5624.78    219.134674    37.929039
5626.01    237.770676    33.804863
5627.24    237.163101    29.021284
5628.47    196.796036    34.852444
5629.70    193.358597    39.094711
5630.93    210.628906    42.829758
5632.16    215.976364    45.095387
5633.40    214.478622    38.004673
5634.63    211.226990    34.351170
5635.86    206.213837    36.054058
5637.09    200.563278    34.526367
5638.32    206.924988    33.998631
5639.55    209.498840    37.200298
5640.78    197.258484    40.290707
5642.01    196.388275    34.599945
5643.25    191.954300    30.623997
5644.48    183.926773    32.979244
5645.71    201.261841    32.196514
5646.94    218.366409    33.056637
5648.17    215.434799    33.687721
5649.40    203.631149    29.924204
5650.63    221.365677    34.301994
5651.86    231.529266    39.310181
5653.09    205.712082    36.330513
5654.33    203.180328    36.772240
5655.56    205.682343    38.217350
5656.79    196.034073    36.018551
5658.02    195.871170    32.138618
5659.25    208.093002    34.336914
5660.48    214.366531    38.020123
5661.71    200.524551    36.251633
5662.94    194.698639    43.292542
5664.18    195.825714    47.252083
5665.41    192.475677    38.811291
5666.64    189.955338    38.174942
5667.87    185.701263    37.778755
5669.10    187.049576    32.988419
5670.33    205.016663    33.943043
5671.56    204.234039    39.465549
5672.79    187.045776    43.109348
5674.02    183.632706    41.873154
5675.26    191.286697    44.688099
5676.49    201.966034    46.818844
5677.72    205.733185    44.113071
5678.95    193.952026    45.633377
5680.18    185.058807    44.463009
5681.41    187.021713    42.031113
5682.64    189.739670    49.670826
5683.87    204.867599    50.890808
5685.11    218.460342    44.051701
5686.34    208.371185    42.023899
5687.57    195.490036    48.364540
5688.80    203.716141    53.556999
5690.03    217.731079    52.823681
5691.26    184.790924    56.098076
5692.49    195.999115    50.053818
5693.72    244.094406    40.001236
5694.95    206.859619    50.649540
5696.19    193.039169    58.763992
5697.42    212.751465    52.271660
5698.65    198.014954    41.817177
5699.88    193.253403    45.438488
5701.11    196.975739    53.422741
5702.34    193.885727    52.430962
5703.57    199.684326    48.710888
5704.80    202.883926    43.356171
5706.04    201.038071    37.938465
5707.27    209.147690    35.385464
5708.50    219.804016    30.955606
5709.73    218.318268    29.536209
5710.96    202.628433    37.126221
5712.19    200.751862    40.998020
5713.42    201.549576    39.193775
5714.65    188.070831    38.550224
5715.88    174.773117    44.847031
5717.12    181.350906    45.720341
5718.35    198.130249    40.989361
5719.58    193.633789    45.139977
5720.81    184.289154    47.008945
5722.04    182.094528    41.953934
5723.27    186.577545    35.920761
5724.50    196.905365    34.778122
5725.73    198.253494    36.439594
5726.97    188.467712    37.753334
5728.20    193.330276    40.194668
5729.43    204.385880    40.796799
5730.66    207.974579    40.010506
5731.89    203.475281    42.468742
5733.12    202.320541    45.899181
5734.35    203.961105    45.439915
5735.58    202.628220    38.440521
5736.81    206.287125    29.616203
5738.05    202.942612    25.757780
5739.28    189.006866    29.308022
5740.51    188.981033    34.795444
5741.74    193.048294    37.856766
5742.97    197.180756    36.953522
5744.20    211.145111    33.830070
5745.43    214.859497    32.936085
5746.66    213.755920    32.751266
5747.89    218.077011    32.428726
5749.13    193.736115    42.352852
5750.36    179.021591    43.427608
5751.59    197.023209    28.879219
5752.82    188.309250    32.389462
5754.05    176.791794    40.083248
5755.28    187.334900    37.909508
5756.51    206.585144    33.466469
5757.74    217.931168    34.897530
5758.98    214.482803    42.377087
5760.21    201.829590    49.821121
5761.44    195.978622    51.144501
5762.67    205.770767    41.960899
5763.90    215.979614    32.578636
5765.13    194.468277    47.016388
5766.36    193.730515    57.729828
5767.59    222.390930    49.781864
5768.82    221.915085    43.405670
5770.06    203.697449    52.533798
5771.29    196.843842    59.240036
5772.52    210.644028    42.727448
5773.75    210.317612    30.280275
5774.98    200.852417    29.674873
5776.21    204.293182    34.377571
5777.44    222.558411    38.029831
5778.67    219.177139    33.843666
5779.91    192.468628    28.000681
5781.14    183.805954    34.415016
5782.37    192.738953    41.418816
5783.60    201.503143    43.033714
5784.83    198.678207    43.915607
5786.06    198.997574    50.558460
5787.29    199.215088    55.548508
5788.52    192.839691    53.301834
5789.75    187.595551    52.013290
5790.99    193.467163    51.926350
5792.22    198.807709    50.946613
5793.45    186.731186    48.745811
5794.68    203.995605    47.469749
5795.91    217.635437    48.289078
5797.14    178.104706    48.273170
5798.37    159.570541    39.861805
5799.60    164.571869    35.166073
5800.84    164.471344    40.608212
5802.07    158.940994    40.349258
5803.30    162.913803    38.887409
5804.53    166.638245    43.300106
5805.76    152.657089    50.054955
5806.99    180.819839    40.825047
5808.22    212.628830    32.554741
5809.45    187.937851    43.949978
5810.68    186.404526    37.794136
5811.92    203.149094    29.819862
5813.15    201.314972    38.250751
5814.38    182.887863    41.174973
5815.61    178.906143    38.606449
5816.84    188.094116    37.008171
5818.07    182.123215    38.534756
5819.30    186.063461    39.024403
5820.53    198.941559    42.367889
5821.77    205.795822    49.752514
5823.00    217.733780    44.833961
5824.23    213.697617    39.816189
5825.46    191.953079    43.816410
5826.69    192.581772    42.205917
5827.92    189.722870    38.372208
5829.15    182.290421    35.811554
5830.38    197.534195    33.624592
5831.61    201.639282    36.932331
5832.85    198.658096    41.532352
5834.08    206.462189    40.615559
5835.31    200.879257    38.021164
5836.54    185.409607    41.315197
5837.77    175.237671    47.028435
5839.00    177.266891    40.013626
5840.23    185.339828    31.668102
5841.46    194.898819    32.465622
5842.70    204.763443    40.142742
5843.93    208.469437    42.418232
5845.16    204.514954    40.916573
5846.39    197.147781    41.924648
5847.62    194.362198    41.252766
5848.85    205.026611    41.651123
5850.08    211.559280    45.791538
5851.31    180.692749    50.512661
5852.54    165.753662    49.300049
5853.78    173.110718    44.670467
5855.01    167.083939    45.903080
5856.24    176.294571    54.401596
5857.47    200.287949    55.218559
5858.70    214.251251    43.184479
5859.93    201.374619    43.560825
5861.16    185.313477    50.407814
5862.39    185.921677    51.039249
5863.63    195.529205    45.286736
5864.86    197.159134    45.708405
5866.09    195.459976    53.004967
5867.32    202.288376    55.588245
5868.55    199.894318    45.434490
5869.78    203.803268    39.234886
5871.01    220.292282    44.920204
5872.24    213.955276    38.796780
5873.47    213.288757    35.642776
5874.71    224.016861    44.226177
5875.94    214.209610    48.783981
5877.17    213.027054    35.908539
5878.40    211.596054    23.662226
5879.63    189.402481    33.216255
5880.86    187.134659    40.238586
5882.09    185.462082    41.326046
5883.32    172.023193    42.034115
5884.56    186.640213    42.009983
5885.79    201.181564    51.582241
5887.02    194.062302    71.346161
5888.25    177.103500    87.727478
5889.48    167.732452    87.959343
5890.71    180.087891    81.015381
5891.94    199.290314    79.517555
5893.17    171.791153    75.125862
5894.40    157.761230    75.658493
5895.64    188.845673    80.096313
5896.87    198.608063    69.433250
5898.10    188.237442    51.447887
5899.33    173.371704    43.092670
5900.56    164.405762    50.515831
5901.79    173.144577    49.187336
5903.02    186.604431    39.665840
5904.25    192.001038    37.233101
5905.49    201.778595    46.858215
5906.72    211.248550    52.731422
5907.95    208.882050    46.917156
5909.18    193.160843    39.570129
5910.41    194.150742    37.982868
5911.64    207.581314    38.871445
5912.87    210.573700    37.541843
5914.10    213.698364    42.388248
5915.33    212.101639    46.249832
5916.57    204.320984    44.079826
5917.80    205.985291    45.411140
5919.03    208.027710    45.105278
5920.26    200.022690    41.834042
5921.49    179.820892    42.363842
5922.72    150.330078    48.390404
5923.95    145.964096    46.874088
5925.18    181.918594    34.044277
5926.42    200.520020    37.757099
5927.65    192.972946    48.482330
5928.88    181.089157    52.937340
5930.11    186.695541    55.402542
5931.34    201.369080    56.145741
5932.57    209.107147    54.648651
5933.80    203.620041    50.135910
5935.03    201.514206    40.760948
5936.26    211.328384    33.821823
5937.50    223.674377    33.909817
5938.73    217.242584    33.973915
5939.96    207.648331    34.670311
5941.19    202.581619    41.692558
5942.42    194.880280    56.023804
5943.65    201.247498    58.255783
5944.88    202.501572    56.900166
5946.11    181.732727    63.266182
5947.35    180.167542    53.196945
5948.58    195.294876    40.899414
5949.81    204.038300    42.813705
5951.04    196.469955    51.162388
5952.27    203.132721    51.762638
5953.50    208.236969    50.638256
5954.73    185.138000    57.927971
5955.96    196.118332    50.580738
5957.19    209.117447    42.451077
5958.43    190.367126    46.033760
5959.66    189.523514    40.558006
5960.89    193.431137    42.168720
5962.12    189.789276    50.079472
5963.35    193.187637    44.446178
5964.58    216.556335    44.780796
5965.81    228.911453    42.584862
5967.04    206.194504    28.179974
5968.27    189.184448    32.020916
5969.51    178.045746    47.009720
5970.74    175.001892    53.999825
5971.97    196.773972    48.485912
5973.20    208.482925    52.946167
5974.43    202.862930    58.322872
5975.66    197.383499    45.040199
5976.89    191.680267    37.955460
5978.12    194.976410    37.943645
5979.36    203.078354    37.048069
5980.59    194.615814    36.226452
5981.82    202.127090    32.579502
5983.05    211.977127    30.154478
5984.28    186.710678    34.307545
5985.51    183.043167    33.503254
5986.74    204.739746    30.762115
5987.97    215.918228    34.972637
5989.20    196.227524    44.695534
5990.44    193.656265    45.022186
5991.67    210.204269    38.944454
5992.90    197.489655    43.146942
5994.13    189.031662    41.181347
5995.36    194.659042    35.214001
5996.59    198.367004    35.094105
5997.82    192.478104    33.142155
5999.05    191.194702    34.748890
6000.29    189.840637    41.055401
6001.52    169.238007    43.073074
6002.75    178.575165    42.738167
6003.98    191.285995    41.712242
6005.21    160.287827    38.970146
6006.44    145.262146    34.121883
6007.67    153.160004    36.456825
6008.90    166.588333    43.940315
6010.13    176.772705    41.330433
6011.37    168.842514    48.247803
6012.60    163.378189    54.072899
6013.83    190.122971    36.957825
6015.06    221.293747    28.832062
6016.29    219.935364    30.511738
6017.52    193.796570    30.963942
6018.75    199.586288    31.849695
6019.98    207.354401    31.599533
6021.22    198.631836    31.060530
6022.45    195.966232    32.073807
6023.68    225.855743    30.583971
6024.91    237.296799    30.768238
6026.14    199.450562    36.394341
6027.37    177.465195    41.727325
6028.60    190.950073    39.872959
6029.83    213.047134    34.756897
6031.06    206.651672    36.519661
6032.30    188.864197    41.256935
6033.53    199.422455    39.009949
6034.76    226.715637    32.731323
6035.99    190.327286    42.781483
6037.22    183.291458    45.048710
6038.45    214.600113    36.784252
6039.68    192.686249    40.408775
6040.91    183.786194    37.298477
6042.15    195.715134    31.305313
6043.38    201.237015    32.860710
6044.61    209.626587    32.121574
6045.84    216.349564    33.374054
6047.07    215.699753    37.152096
6048.30    210.167923    37.118244
6049.53    208.107239    37.352993
6050.76    194.633286    34.375343
6051.99    169.384674    28.901699
6053.23    175.585663    35.154190
6054.46    193.010773    36.503979
6055.69    199.100449    28.574684
6056.92    197.188797    27.719891
6058.15    193.370071    32.780930
6059.38    182.861984    36.338745
6060.61    170.104233    34.391621
6061.84    179.199081    31.651669
6063.08    179.249161    31.069279
6064.31    170.213409    30.865082
6065.54    186.183182    27.842415
6066.77    197.270813    26.744595
6068.00    181.398956    32.540161
6069.23    161.182114    40.763504
6070.46    192.390060    37.186512
6071.69    210.436554    35.970177
6072.92    188.765167    40.113285
6074.16    174.307602    37.716766
6075.39    179.627426    37.411163
6076.62    180.522003    39.472397
6077.85    168.219711    39.984932
6079.08    179.315338    39.561981
6080.31    199.802002    34.776821
6081.54    205.333817    27.204807
6082.77    189.421432    23.696514
6084.01    172.262512    27.344704
6085.24    162.678543    32.076870
6086.47    163.453888    33.849483
6087.70    175.410965    36.817577
6088.93    171.228638    35.104519
6090.16    163.860748    31.990328
6091.39    183.774460    34.643520
6092.62    198.790909    33.481541
6093.85    198.453110    29.888136
6095.09    189.251007    28.983656
6096.32    181.264664    30.186462
6097.55    192.094193    28.321194
6098.78    195.089218    27.476986
6100.01    169.941254    31.750805
6101.24    179.839722    29.302992
6102.47    193.728882    26.942650
6103.70    181.603409    29.026140
6104.94    168.970123    29.105181
6106.17    163.567825    33.819214
6107.40    169.902420    36.552620
6108.63    177.260376    29.935587
6109.86    155.073364    25.733189
6111.09    143.468109    24.601963
6112.32    152.243225    25.157845
6113.55    148.085312    27.141464
6114.78    153.485199    24.778219
6116.02    142.527466    25.379219
6117.25    111.632034    33.461483
6118.48    127.884125    36.318913
6119.71    138.521790    28.530285
6120.94    135.259140    22.081120
6122.17    150.660782    29.341965
6123.40    136.702972    32.596436
6124.63    132.682114    31.976707
6125.87    159.959702    32.997856
6127.10    164.138794    34.491146
6128.33    156.054871    39.662010
6129.56    156.641968    39.589470
6130.79    169.245804    29.830276
6132.02    176.562454    30.137760
6133.25    179.204529    28.857817
6134.48    185.916336    22.823500
6135.71    194.346817    26.634541
6136.95    174.718826    34.414738
6138.18    164.070969    36.562160
6139.41    191.235229    31.337309
6140.64    208.404785    28.206520
6141.87    193.683075    32.063599
6143.10    173.615936    36.049171
6144.33    182.026199    32.024673
6145.56    194.220276    28.602776
6146.80    199.202621    30.499876
6148.03    200.051682    34.044960
6149.26    201.425781    32.164345
6150.49    196.881424    29.426182
6151.72    177.710052    31.161608
6152.95    159.606659    37.427013
6154.18    179.808884    41.478920
6155.41    170.562119    38.339417
6156.64    137.586029    35.207947
6157.88    148.451645    39.672802
6159.11    171.837143    36.259953
6160.34    181.361954    27.821049
6161.57    184.308456    22.935619
6162.80    201.450287    23.035284
6164.03    195.890396    26.624588
6165.26    164.274506    31.215275
6166.49    139.533798    33.946308
6167.72    149.420135    34.009521
6168.96    156.855362    41.195244
6170.19    163.165039    45.127209
6171.42    188.554489    32.079834
6172.65    174.829102    29.951082
6173.88    159.569046    34.129974
6175.11    171.455231    32.865814
6176.34    172.612106    29.940180
6177.57    157.430115    32.421772
6178.81    149.312973    33.115871
6180.04    157.708069    28.974503
6181.27    154.565002    34.027748
6182.50    151.329666    35.249008
6183.73    150.174728    34.807568
6184.96    148.270065    40.321075
6186.19    168.109955    30.954021
6187.42    184.149765    24.254023
6188.65    177.895477    30.649250
6189.89    163.492065    36.097698
6191.12    154.054062    38.454845
6192.35    149.698135    41.356834
6193.58    154.817490    41.081924
6194.81    178.935791    28.905514
6196.04    187.977325    27.775658
6197.27    176.258972    33.573330
6198.50    163.019485    31.225700
6199.74    159.673172    31.362711
6200.97    176.739258    32.278503
6202.20    187.987030    36.341129
6203.43    164.752823    44.101261
6204.66    149.590897    35.698666
6205.89    148.056412    26.974842
6207.12    151.439774    26.861593
6208.35    155.248962    23.775925
6209.58    145.145645    28.839003
6210.82    142.117416    35.362339
6212.05    156.954422    35.004665
6213.28    161.936096    34.200871
6214.51    157.501205    33.563557
6215.74    149.863739    32.797997
6216.97    149.976883    32.890167
6218.20    169.704361    34.172897
6219.43    171.274109    28.723555
6220.67    160.474365    22.692730
6221.90    166.477951    27.696621
6223.13    162.185272    35.737457
6224.36    150.417358    37.888645
6225.59    146.335297    33.221916
6226.82    158.292847    26.657902
6228.05    180.380127    19.329762
6229.28    176.869293    17.313826
6230.51    156.710068    24.764988
6231.75    169.414886    38.771873
6232.98    170.683502    51.924980
6234.21    153.078049    56.018509
6235.44    139.972855    55.022606
6236.67    145.442429    60.713806
6237.90    158.406708    50.488106
6239.13    158.401642    32.961491
6240.36    141.761993    30.694973
6241.60    133.741974    40.107082
6242.83    144.884689    39.150120
6244.06    152.140793    33.938717
6245.29    142.185013    39.468082
6246.52    150.219330    40.987267
6247.75    148.655060    34.777328
6248.98    141.540833    28.248112
6250.21    153.633133    28.634859
6251.44    154.274063    30.440105
6252.68    141.963776    25.047636
6253.91    132.396561    23.138802
6255.14    138.924454    38.332302
6256.37    157.308044    47.312809
6257.60    149.964920    50.484035
6258.83    137.401947    50.547039
6260.06    167.679550    41.845016
6261.29    166.157181    28.871185
6262.53    153.635239    28.501352
6263.76    162.123047    36.097927
6264.99    169.337265    30.777510
6266.22    156.073807    33.302883
6267.45    153.313385    37.486652
6268.68    173.159698    33.676014
6269.91    180.325836    29.170557
6271.14    170.618866    25.031832
6272.37    162.746811    22.181437
6273.61    163.979416    24.291811
6274.84    160.763062    32.128098
6276.07    160.037613    29.863380
6277.30    156.576797    25.574966
6278.53    149.946381    26.981050
6279.76    154.407837    25.136559
6280.99    162.788727    31.812889
6282.22    173.036667    28.495487
6283.46    178.940552    14.996332
6284.69    167.974274    29.915434
6285.92    158.967590    43.420082
6287.15    153.939667    49.242962
6288.38    147.940155    52.972878
6289.61    146.115463    44.452034
6290.84    145.452087    30.593153
6292.07    142.695694    26.772419
6293.30    137.929108    32.007156
6294.54    136.125397    27.607050
6295.77    147.373871    31.984482
6297.00    164.679672    53.105797
6298.23    176.164017    92.060432
6299.46    178.363998    145.696381
6300.69    165.848419    167.456955
6301.92    157.314316    135.400436
6303.15    164.266403    76.319580
6304.39    168.204620    44.206367
6305.62    159.146484    47.980213
6306.85    145.442581    62.123249
6308.08    147.883987    55.920910
6309.31    173.068420    26.135559
6310.54    172.552872    16.783997
6311.77    164.405457    23.243624
6313.00    169.061035    26.179594
6314.23    161.606003    28.062298
6315.47    147.579758    26.241728
6316.70    153.810074    25.057392
6317.93    166.556534    25.984692
6319.16    149.503387    24.978806
6320.39    158.546204    26.619261
6321.62    160.290176    28.487488
6322.85    141.675369    26.446476
6324.08    144.795410    20.978716
6325.32    148.263504    17.858759
6326.55    153.933823    25.363535
6327.78    161.800446    33.102741
6329.01    159.316559    28.922207
6330.24    148.258926    35.652554
6331.47    149.049591    34.928474
6332.70    153.262970    24.122551
6333.93    144.388824    21.001286
6335.16    146.100708    22.082394
6336.40    136.018234    24.359161
6337.63    120.638237    24.676802
6338.86    123.639259    23.006281
6340.09    133.195038    24.502886
6341.32    138.759842    24.836983
6342.55    138.526398    25.869770
6343.78    142.214447    29.024347
6345.01    157.434479    27.835220
6346.25    151.831406    24.991596
6347.48    143.272842    21.548428
6348.71    144.526596    22.578800
6349.94    130.998672    31.523458
6351.17    121.579269    26.797964
6352.40    104.947533    29.536442
6353.63    94.063614    41.775295
6354.86    118.152618    37.119110
6356.09    134.526306    31.682060
6357.33    141.295395    24.617973
6358.56    133.702606    25.126205
6359.79    117.641960    40.187546
6361.02    142.589996    44.684917
6362.25    156.949738    51.740715
6363.48    139.839355    61.026531
6364.71    123.982735    61.979607
6365.94    136.697144    56.273651
6367.17    148.710983    36.639801
6368.41    131.975189    23.709972
6369.64    113.464043    24.854675
6370.87    140.989914    19.112024
6372.10    158.478699    16.670965
6373.33    147.860870    20.355053
6374.56    132.212555    22.915880
6375.79    132.630936    21.739622
6377.02    136.747803    27.718109
6378.26    147.720139    26.383715
6379.49    155.744873    21.571800
6380.72    151.968277    25.035198
6381.95    150.707336    26.932060
6383.18    151.458237    21.277626
6384.41    144.671265    23.028667
6385.64    137.007889    31.198780
6386.87    143.987976    25.241116
6388.10    143.805099    21.615410
6389.34    134.389236    22.987833
6390.57    123.708977    23.948633
6391.80    120.692078    22.134428
6393.03    129.100220    20.097681
6394.26    114.993889    21.249594
6395.49    107.557976    25.963961
6396.72    126.977036    26.561478
6397.95    128.713684    16.462524
6399.19    128.107635    15.494316
6400.42    135.904266    16.635805
6401.65    143.698929    15.068604
6402.88    139.737442    16.951286
6404.11    129.278244    16.318617
6405.34    123.439667    20.987652
6406.57    129.572662    25.446281
6407.80    134.588211    22.834291
6409.03    119.786690    20.673943
6410.27    122.480827    17.373775
6411.50    120.755157    21.933449
6412.73    116.985046    29.681625
6413.96    131.153854    27.281803
6415.19    112.051987    24.720896
6416.42    109.611008    22.524052
6417.65    125.607513    22.558393
6418.88    133.743149    22.712355
6420.12    140.153473    17.318247
6421.35    125.414993    19.742575
6422.58    123.975670    15.950935
6423.81    141.526321    11.982085
6425.04    139.672226    22.726908
6426.27    110.099846    23.946770
6427.50    95.756615    21.594038
6428.73    105.832741    20.707449
6429.96    120.589539    19.843054
6431.20    126.727501    18.969044
6432.43    125.300232    20.232948
6433.66    111.125954    21.535557
6434.89    109.955620    18.158726
6436.12    132.690994    11.849477
6437.35    136.985489    12.756185
6438.58    132.528717    19.157461
6439.81    133.684769    20.196857
6441.05    132.095139    19.899878
6442.28    124.769073    25.917828
6443.51    140.697662    22.530849
6444.74    139.016663    20.097124
6445.97    128.485428    21.744551
6447.20    123.296982    18.843170
6448.43    110.386101    10.306941
6449.66    117.806282    15.046080
6450.89    124.036186    24.169003
6452.13    129.688171    24.939173
6453.36    136.610565    19.706902
6454.59    122.861504    19.706869
6455.82    120.858704    20.976439
6457.05    120.069611    20.544481
6458.28    113.259224    22.068710
6459.51    116.479408    24.965364
6460.74    136.165497    20.721296
6461.98    145.077286    21.168863
6463.21    138.247681    27.681314
6464.44    134.931198    30.833208
6465.67    137.053116    27.014919
6466.90    114.979759    25.597002
6468.13    107.470139    21.939280
6469.36    113.851898    22.762840
6470.59    110.900978    30.929703
6471.82    101.969536    33.254753
6473.06    112.212524    19.758781
6474.29    114.851868    18.493504
6475.52    113.594391    25.576046
6476.75    112.715477    25.304832
6477.98    107.655571    20.208479
6479.21    123.291954    18.243162
6480.44    120.576294    17.212162
6481.67    122.006073    17.498943
6482.91    130.866928    19.260674
6484.14    110.980118    18.236774
6485.37    106.436607    12.855953
6486.60    116.971474    13.676292
6487.83    117.255066    19.621902
6489.06    106.584145    21.811089
6490.29    110.259499    19.063324
6491.52    127.152847    19.910931
6492.75    121.436340    18.702126
6493.99    110.050476    21.794882
6495.22    101.443077    28.949131
6496.45    84.116791    31.815807
6497.68    98.623894    40.384933
6498.91    123.045967    47.342720
6500.14    133.673676    43.441700
6501.37    130.923645    30.915543
6502.60    127.013901    23.002691
6503.84    128.293259    27.425793
6505.07    137.221893    24.427145
6506.30    135.271820    19.316719
6507.53    127.250519    20.821764
6508.76    133.327225    22.988739
6509.99    140.871170    21.060932
6511.22    134.684464    23.108154
6512.45    118.839394    23.087156
6513.68    114.212898    20.569477
6514.92    118.515198    22.310139
6516.15    105.128654    25.840242
6517.38    108.042793    24.254648
6518.61    111.514053    21.594685
6519.84    112.494469    18.492685
6521.07    117.226311    17.476643
6522.30    114.356514    22.809589
6523.53    110.857849    20.908844
6524.77    108.969109    20.045713
6526.00    115.669373    18.513170
6527.23    126.813660    14.368006
6528.46    131.966629    14.981803
6529.69    138.031357    20.378866
6530.92    131.772339    28.012850
6532.15    123.745422    40.375099
6533.38    119.309341    49.158531
6534.61    117.365150    41.764133
6535.85    126.094269    24.088219
6537.08    126.416100    15.776115
6538.31    119.269852    18.739176
6539.54    120.499962    18.277842
6540.77    124.229637    15.609365
6542.00    110.613838    23.769920
6543.23    102.314972    24.590860
6544.46    124.146645    23.043680
6545.70    136.359116    23.336872
6546.93    128.306610    24.192373
6548.16    129.282928    22.702364
6549.39    128.678329    18.932251
6550.62    110.913193    23.718443
6551.85    115.811829    28.191513
6553.08    122.748634    35.078987
6554.31    113.348839    42.322117
6555.54    124.705688    36.130066
6556.78    149.314453    26.269918
6558.01    159.393661    17.515276
6559.24    131.699295    17.454346
6560.47    111.983101    22.237320
6561.70    133.741241    22.910149
6562.93    140.006210    24.399422
6564.16    117.343803    33.953701
6565.39    100.943649    29.890970
6566.62    108.022087    23.725008
6567.86    113.978142    25.158451
6569.09    107.171829    25.095137
6570.32    120.853462    27.064680
6571.55    130.480011    23.313652
6572.78    134.951309    16.752581
6574.01    143.269012    10.285150
6575.24    136.911346    19.013615
6576.47    113.884377    40.110939
6577.71    131.685379    27.226761
6578.94    146.592606    25.293716
6580.17    142.241440    21.835598
6581.40    114.431290    21.794474
6582.63    101.090187    27.232744
6583.86    125.997223    18.999928
6585.09    97.715614    27.231701
6586.32    96.493065    22.547935
6587.55    99.315353    26.402699
6588.79    108.650551    28.018316
6590.02    125.559845    17.427639
6591.25    103.050781    21.001427
6592.48    94.066879    15.283422
6593.71    111.298553    21.355606
6594.94    111.210098    26.348227
6596.17    94.087753    26.837088
6597.40    95.683052    27.340000
6598.64    112.065369    21.974741
6599.87    110.646584    22.706337
6601.10    118.605019    22.960728
6602.33    104.419907    23.906790
6603.56    97.523750    22.711191
6604.79    118.613403    21.570908
6606.02    127.414429    22.779884
6607.25    134.989960    11.294389
6608.48    105.549232    10.671512
6609.72    94.474747    17.370716
6610.95    102.387901    21.016462
6612.18    111.283417    18.806982
6613.41    126.374367    13.689873
6614.64    118.331429    12.045554
6615.87    109.729332    12.307805
6617.10    109.654144    16.213696
6618.33    105.454750    21.646763
6619.57    107.661461    22.334280
6620.80    124.941055    20.048054
6622.03    129.114182    21.114367
6623.26    120.820374    16.052834
6624.49    101.492493    21.368645
6625.72    100.316429    19.238623
6626.95    111.133911    15.849204
6628.18    114.991074    18.157951
6629.41    116.835205    10.912971
6630.65    109.386292    15.259929
6631.88    112.121323    16.734480
6633.11    106.368187    14.137967
6634.34    121.359894    12.494187
6635.57    136.394180    13.731577
6636.80    112.172745    17.631983
6638.03    102.266228    20.087448
6639.26    96.339325    14.888267
6640.50    99.867668    14.592110
6641.73    110.738556    17.739550
6642.96    109.912651    16.945099
6644.19    106.538490    13.192104
6645.42    114.822784    13.250164
6646.65    102.801750    17.018541
6647.88    103.631332    12.957803
6649.11    100.438622    12.971612
6650.34    113.210983    13.843809
6651.58    119.809387    17.934790
6652.81    103.517128    20.813198
6654.04    113.653542    10.864115
6655.27    130.019669    15.255571
6656.50    124.980202    16.580036
6657.73    98.850700    15.376381
6658.96    110.569092    17.816107
6660.19    115.467667    20.416481
6661.43    80.631683    19.884218
6662.66    100.565544    17.911457
6663.89    117.694649    11.737558
6665.12    101.681488     9.603802
6666.35    114.165680    11.685472
6667.58    114.814758    14.090287
6668.81    105.349541    15.361528
6670.04    117.741646    16.130985
6671.27    102.724358    15.963464
6672.51    105.242752    14.083124
6673.74    119.526413    14.857087
6674.97    125.345757    14.133840
6676.20    110.280212    15.494923
6677.43    99.722664    18.976231
6678.66    105.162743    18.518789
6679.89    99.742302    15.938181
6681.12    99.540504    15.299226
6682.36    103.718796    11.627337
6683.59    96.499649    17.871361
6684.82    108.456635    17.041389
6686.05    114.591087    13.285338
6687.28    97.411621    17.690264
6688.51    104.692719    14.200534
6689.74    117.224388     7.896944
6690.97    102.121559    15.424038
6692.20    113.822304     9.777021
6693.44    118.802719     8.531252
6694.67    109.640541    13.521181
6695.90    100.962799    14.444325
6697.13    90.313988    19.287155
6698.36    95.142990    23.945700
6699.59    103.798668    14.240270
6700.82    111.326691    10.586981
6702.05    109.768364    12.343616
6703.29    107.247261    13.539395
6704.52    98.125847    17.129866
6705.75    93.046371    19.675562
6706.98    110.445549    15.711684
6708.21    116.726913    14.144571
6709.44    124.223061     8.073559
6710.67    113.428734     5.295777
6711.90    101.640839     9.484344
6713.13    99.709946    16.748634
6714.37    97.652634    20.647537
6715.60    103.765205    17.899803
6716.83    118.936203    12.736567
6718.06    98.875626    12.764675
6719.29    81.832550    17.313454
6720.52    100.881302    17.573059
6721.75    103.766350    11.873352
6722.98    104.860779     7.884463
6724.22    114.501305    12.971008
6725.45    104.714905    19.276581
6726.68    102.552444    14.581573
6727.91    115.451874    11.791398
6729.14    114.572136    17.458172
6730.37    114.709991    15.101222
6731.60    102.924904    15.930099
6732.83    92.451614    17.851263
6734.06    102.238564    12.867050
6735.30    105.686546    13.682607
6736.53    86.890511    22.152399
6737.76    84.872795    16.351864
6738.99    86.594009    14.359041
6740.22    89.350624    18.842773
6741.45    90.048241    15.013506
6742.68    90.651703    14.923510
6743.91    90.279228    15.033062
6745.15    89.311958    10.020139
6746.38    93.698021    14.298251
6747.61    98.962143    13.994211
6748.84    101.856758    16.658558
6750.07    101.086983    17.241758
6751.30    96.361671    16.154524
6752.53    99.934387    12.315889
6753.76    110.593994    12.056630
6754.99    109.078613    11.375481
6756.23    101.066780     7.360553
6757.46    109.427338    14.319853
6758.69    107.019341    14.310272
6759.92    90.672104     9.993629
6761.15    100.770523    13.907174
6762.38    97.106369    12.978760
6763.61    84.412895    11.027784
6764.84    87.311714    14.468493
6766.07    87.171944    13.966293
6767.31    84.282043     9.812197
6768.54    94.918221    12.055825
6769.77    80.322144    12.377529
6771.00    93.008644     7.942611
6772.23    86.557663    13.087574
6773.46    92.416977    13.676424
6774.69    85.332993    12.806233
6775.92    66.948692    15.393083
6777.16    75.982117    13.179269
6778.39    79.530640    12.329889
6779.62    87.084038    16.007784
6780.85    96.667267    13.414782
6782.08    91.751106    12.708066
6783.31    81.325493    20.356552
6784.54    83.234222    14.798972
6785.77    92.257370    10.518945
6787.00    92.630684    14.562026
6788.24    94.614479    12.467662
6789.47    101.016754    10.632316
6790.70    89.014542    10.085220
6791.93    102.190819    15.133944
6793.16    97.637886     7.956675
6794.39    95.727081    10.929398
6795.62    82.958397    12.758947
6796.85    75.635178    13.200356
6798.09    82.178764    12.210575
6799.32    78.439316     7.347803
6800.55    76.859718     9.669880
6801.78    98.207184    13.139215
6803.01    103.141685    14.862453
6804.24    73.840897    17.658085
6805.47    79.592682    18.143524
6806.70    82.673309    17.739748
6807.93    73.167084    14.898135
6809.17    80.157768    15.413633
6810.40    92.241905    18.153576
6811.63    86.442184    15.146210
6812.86    77.795074    12.961493
6814.09    82.998314    13.000501
6815.32    83.116043    10.078590
6816.55    71.553490    12.346535
6817.78    86.613739    13.571152
6819.02    83.822884    16.146336
6820.25    74.079544    15.668623
6821.48    75.747963    11.518654
6822.71    69.789192    11.706872
6823.94    71.041328    17.441536
6825.17    84.523613    23.153572
6826.40    83.958069    22.023563
6827.63    90.150856    23.603052
6828.86    92.016769    26.166401
6830.10    93.005821    29.903097
6831.33    90.564903    31.415628
6832.56    82.156067    30.552137
6833.79    69.763229    32.100468
6835.02    76.872086    27.882580
6836.25    103.210289    17.397343
6837.48    99.727341    20.033718
6838.71    101.796379    16.181755
6839.95    103.589180    14.259718
6841.18    96.549820    11.204945
6842.41    94.791801     7.443804
6843.64    93.276459    12.467934
6844.87    92.524498    13.469296
6846.10    94.248505    12.052115
6847.33    90.002388    16.599623
6848.56    87.984070    12.796458
6849.79    90.130402     8.012134
6851.03    71.214447    10.102827
6852.26    81.662254     3.400115
6853.49    78.682022     7.935498
6854.72    79.636963    12.487629
6855.95    88.000862    10.122070
6857.18    90.205849    16.125664
6858.41    93.213646    17.462828
6859.64    82.148842    13.124626
6860.88    63.623817    25.368601
6862.11    83.107285    37.416023
6863.34    79.172577    50.945057
6864.57    70.930511    42.660576
6865.80    63.551445    31.948650
6867.03    58.366253    23.493265
6868.26    59.676720    12.556477
6869.49    60.607700    12.278255
6870.72    49.195190    19.432606
6871.96    52.396049    16.786236
6873.19    65.134834    12.035914
6874.42    49.157005    15.035905
6875.65    69.282227    10.914674
6876.88    74.111328     7.913632
6878.11    70.657021    11.924088
6879.34    53.632446    15.845267
6880.57    74.382385    14.382265
6881.81    82.120201    11.764838
6883.04    69.787178    13.368426
6884.27    74.189339    12.475717
6885.50    71.115028    10.938297
6886.73    65.174461    16.252895
6887.96    76.991699    15.084417
6889.19    63.606056    18.937412
6890.42    61.324089    15.784534
6891.65    65.352264    12.298502
6892.89    67.856705    12.052612
6894.12    81.019905    11.042353
6895.35    82.729500     9.084095
6896.58    57.905872     9.771331
6897.81    57.023533    10.936121
6899.04    82.127350    11.648397
6900.27    70.481728    15.063869
6901.50    75.989632    13.006346
6902.74    74.321869    13.018620
6903.97    86.315155    12.035890
6905.20    67.462051    12.992560
6906.43    58.231098    10.903208
6907.66    65.953896     7.292630
6908.89    68.714569    11.001959
6910.12    64.383263    15.294168
6911.35    64.182556    14.135389
6912.58    80.163391    16.151928
6913.82    85.870949    16.011639
6915.05    73.352142    16.135899
6916.28    55.990673    12.435243
6917.51    71.924271    12.090159
6918.74    82.184616    10.534821
6919.97    61.813923    15.273881
6921.20    64.598534    17.095436
6922.43    70.848434    18.362947
6923.67    68.951714    26.716141
6924.90    85.646385    24.724159
6926.13    57.439907    15.330169
6927.36    71.874992    10.074355
6928.59    58.218262     8.997678
6929.82    62.565926    10.008071
6931.05    45.945969    15.402374
6932.28    59.693291    12.515838
6933.51    77.329094    10.433138
6934.75    63.000648    11.754054
6935.98    60.477509    11.730216
6937.21    75.926445    15.653021
6938.44    76.874954    17.135609
6939.67    64.004379    18.000338
6940.90    68.194801    16.303165
6942.13    58.007469    12.981372
6943.36    65.654037     8.144929
6944.60    72.054008     6.735129
6945.83    74.071571    10.888309
6947.06    69.596924    16.077730
6948.29    69.931625    20.888390
6949.52    75.348083    27.607630
6950.75    54.764973    28.058306
6951.98    61.110352    14.894835
6953.21    69.518669    10.046591
6954.44    70.297523    10.692927
6955.68    61.512375    11.556828
6956.91    63.490055     8.672963
6958.14    68.855537    13.515036
6959.37    69.202972    15.463789
6960.60    68.207054    10.507154
6961.83    65.709518    12.037682
6963.06    67.431740    11.034112
6964.29    70.998474    13.991899
6965.52    69.222534    17.156902
6966.76    68.887589    11.681503
6967.99    69.313187     6.761522
6969.22    72.436127    10.110961
6970.45    70.918846    11.805354
6971.68    70.071938    11.627034
6972.91    73.014305    12.770271
6974.14    64.240143    10.806773
6975.37    54.085297    10.999731
6976.61    63.723595    10.956810
6977.84    63.841454    13.455602
6979.07    69.991440    16.102251
6980.30    72.909828    13.488343
6981.53    65.667313    11.126751
6982.76    55.030388    10.574098
6983.99    55.515034     7.546119
6985.22    58.498135     8.512648
6986.45    51.394291    13.801571
6987.69    63.043690     6.976543
6988.92    63.016426     8.600068
6990.15    67.517624    10.099292
6991.38    70.571228     9.640503
6992.61    63.468960    11.494521
6993.84    66.475410     7.486946
6995.07    68.582474     7.328978
6996.30    62.585815    12.833546
6997.54    69.112518     6.176367
6998.77    61.829170     6.090608
7000.00    57.050148    11.725883
7001.23    58.658493     9.994471
7002.46    59.031281     7.001356
7003.69    64.548409     8.482913
7004.92    65.733490    11.048211
7006.15    60.449726    10.164594
7007.38    58.538857     9.385694
7008.62    54.078815    12.203310
7009.85    48.989086    12.002241
7011.08    57.866619    12.671356
7012.31    58.425049    16.095390
7013.54    41.983482    17.971306
7014.77    54.619118    13.371284
7016.00    63.967129     8.533699
7017.23    59.693169    10.074860
7018.47    70.861313    10.116979
7019.70    59.559010     4.986450
7020.93    62.503487     9.699133
7022.16    66.883408     9.694973
7023.39    65.171280     6.463150
7024.62    62.509724     7.038793
7025.85    61.886765    11.345912
7027.08    62.108463    10.190906
7028.31    65.401161     5.970597
7029.55    69.953484    10.431709
7030.78    68.686577    12.089689
7032.01    79.608604     8.548426
7033.24    71.053490     7.773083
7034.47    76.002388     7.766185
7035.70    74.379822     5.914247
7036.93    62.067997     7.512879
7038.16    62.270115    11.209653
7039.40    55.658245     8.768753
7040.63    54.169132     7.852188
7041.86    53.474716    10.943420
7043.09    73.639809     8.014210
7044.32    73.961533     8.583366
7045.55    57.462196    12.262748
7046.78    54.362408    13.361618
7048.01    54.115093    15.490065
7049.24    51.122890    15.937075
7050.48    66.885658     9.380964
7051.71    62.753227    11.899496
7052.94    65.373932    12.047408
7054.17    72.160660     7.711309
7055.40    69.378357     5.570512
7056.63    65.311584     4.634643
7057.86    59.303879     6.477173
7059.09    49.578793    15.821696
7060.33    63.574974    10.031231
7061.56    54.384132    13.445369
7062.79    57.846676    14.034382
7064.02    69.521782     9.163877
7065.25    64.086861     8.256779
