#Wavelength     Flux
#[Angstrom]   [Counts]
3913.05     0.000000
3914.68     0.000000
3916.32     0.000000
3917.95     0.000000
3919.59     0.000000
3921.23     0.000000
3922.86     0.000000
3924.50     0.000000
3926.14     0.000000
3927.77     0.000000
3929.41     0.000000
3931.04     0.000000
3932.68     0.000000
3934.32     0.000000
3935.95     0.000000
3937.59     0.000000
3939.22     0.000000
3940.86     0.000000
3942.50     0.000000
3944.13     0.000000
3945.77     0.000000
3947.41     0.000000
3949.04     0.000000
3950.68     0.000000
3952.31     0.000000
3953.95     0.000000
3955.59     0.000000
3957.22     0.000000
3958.86     0.000000
3960.49     0.000000
3962.13     0.000000
3963.77     0.000000
3965.40     0.000000
3967.04     0.000000
3968.68     0.000000
3970.31     0.000000
3971.95     0.000000
3973.59     0.000000
3975.22     0.000000
3976.86     0.000000
3978.49     0.000000
3980.13     0.000000
3981.77     0.000000
3983.40     0.000000
3985.04     0.000000
3986.67     0.000000
3988.31     0.000000
3989.95     0.000000
3991.58     0.000000
3993.22     0.000000
3994.86     0.000000
3996.49     0.000000
3998.13     0.000000
3999.76     0.000000
4001.40     0.000000
4003.04     0.000000
4004.67     0.000000
4006.31     0.000000
4007.95     0.000000
4009.58     0.000000
4011.22     0.000000
4012.85     0.000000
4014.49     0.000000
4016.13     0.000000
4017.76     0.000000
4019.40     0.000000
4021.03     0.000000
4022.67     0.000000
4024.31     0.000000
4025.94     0.000000
4027.58     0.000000
4029.22     0.000000
4030.85     0.000000
4032.49     0.000000
4034.12     0.000000
4035.76     0.000000
4037.40     0.000000
4039.03     0.000000
4040.67     0.000000
4042.30     0.000000
4043.94     0.000000
4045.58     0.000000
4047.21    3033.374000
4048.85    585.385400
4050.49    1168.108000
4052.12    1292.160000
4053.76    1068.304000
4055.39    892.606800
4057.03    601.330400
4058.67    984.284500
4060.30    1183.700000
4061.94    1222.258000
4063.58    1064.090000
4065.21    1109.648000
4066.85    787.565200
4068.49    908.089100
4070.12    1083.789000
4071.76    1187.400000
4073.39    1004.746000
4075.03    1475.422000
4076.67    1175.662000
4078.30    935.255900
4079.94    942.567600
4081.57    1089.246000
4083.21    1175.482000
4084.85    1156.922000
4086.48    1137.036000
4088.12    1094.790000
4089.76    1356.927000
4091.39    1033.520000
4093.03    1209.544000
4094.66    1189.135000
4096.30    979.330800
4097.94    824.609500
4099.57    923.849200
4101.21    960.847000
4102.85    1075.058000
4104.48    1386.824000
4106.12    1237.266000
4107.75    1302.988000
4109.39    1195.653000
4111.03    1288.384000
4112.66    1302.673000
4114.30    1374.526000
4115.94    1298.406000
4117.57    1133.790000
4119.21    1134.142000
4120.84    930.229000
4122.48    1046.982000
4124.12    1019.212000
4125.75    1095.699000
4127.39    1331.914000
4129.02    1257.987000
4130.66    990.825300
4132.30    977.812600
4133.93    1117.597000
4135.57    1203.826000
4137.20    1434.443000
4138.84    1551.492000
4140.48    1492.912000
4142.11    1447.977000
4143.75    1512.188000
4145.39    1418.029000
4147.02    1292.114000
4148.66    1330.251000
4150.30    1324.024000
4151.93    1252.935000
4153.57    1144.815000
4155.20    1280.951000
4156.84    1498.879000
4158.48    1634.763000
4160.11    1457.329000
4161.75    1264.357000
4163.39    991.567000
4165.02    1217.030000
4166.66    1405.366000
4168.29    1385.588000
4169.93    1369.470000
4171.56    1322.496000
4173.20    1090.292000
4174.84    1245.215000
4176.47    1513.391000
4178.11    1165.963000
4179.75    1603.161000
4181.38    1612.674000
4183.02    1475.355000
4184.65    1461.415000
4186.29    1183.173000
4187.93    1127.266000
4189.56    1269.659000
4191.20    1337.394000
4192.84    1345.309000
4194.47    1582.289000
4196.11    1386.647000
4197.74    1321.341000
4199.38    1214.988000
4201.02    1209.283000
4202.65    1460.478000
4204.29    1081.818000
4205.93    1178.395000
4207.56    1322.289000
4209.20    1257.402000
4210.83    1162.600000
4212.47    1319.644000
4214.11    1413.865000
4215.74    1263.888000
4217.38    1323.636000
4219.02    1416.972000
4220.65    1184.820000
4222.29    1032.070000
4223.92    1084.345000
4225.56    1061.033000
4227.20    1128.181000
4228.83    1015.683000
4230.47    1376.492000
4232.10    1477.781000
4233.74    1302.595000
4235.38    1134.263000
4237.01    1380.389000
4238.65    1218.965000
4240.29    1337.680000
4241.92    1207.042000
4243.56    1308.744000
4245.19    878.194600
4246.83    816.292600
4248.47    836.084800
4250.10    687.623800
4251.74    1141.269000
4253.38    1299.556000
4255.01    1152.532000
4256.65    1266.012000
4258.28    1056.321000
4259.92    1313.983000
4261.56    1197.940000
4263.19    1320.064000
4264.83    1381.805000
4266.47    1037.418000
4268.10    1187.402000
4269.74    1159.461000
4271.37    912.673500
4273.01    778.918300
4274.65    1503.636000
4276.28    1165.104000
4277.92    1059.028000
4279.56    1180.530000
4281.19    1086.502000
4282.83    965.551300
4284.46    946.534700
4286.10    1140.154000
4287.74    1303.943000
4289.37    1403.579000
4291.01    1061.851000
4292.65    1144.805000
4294.28    847.094800
4295.92    853.835300
4297.55    1064.231000
4299.19    800.219100
4300.83    1100.461000
4302.46    1433.903000
4304.10    1169.417000
4305.73    1165.286000
4307.37    1171.565000
4309.01    1287.491000
4310.64    1092.004000
4312.28    845.313500
4313.92    1049.884000
4315.55    1379.947000
4317.19    1057.891000
4318.82    1094.873000
4320.46    1426.074000
4322.10    817.600200
4323.73    824.354700
4325.37    566.398500
4327.01    871.239300
4328.64    863.527600
4330.28    825.692900
4331.91    566.147200
4333.55    861.791100
4335.19    1066.708000
4336.82    959.124600
4338.46    1122.484000
4340.10    1171.898000
4341.73    1712.851000
4343.37    1194.173000
4345.00    1343.493000
4346.64    1143.906000
4348.28    1068.819000
4349.91    1101.261000
4351.55    959.999500
4353.19    1499.157000
4354.82    1389.806000
4356.46    1489.553000
4358.09    1462.879000
4359.73    1459.925000
4361.36    1089.870000
4363.00    1181.833000
4364.64    1270.574000
4366.27    1246.974000
4367.91    1460.040000
4369.55    1030.342000
4371.18    1222.595000
4372.82    1461.689000
4374.45    1278.899000
4376.09    1404.144000
4377.73    1433.656000
4379.36    1193.158000
4381.00    1541.980000
4382.64    1486.950000
4384.27    1429.962000
4385.91    1405.402000
4387.55    1527.207000
4389.18    1467.253000
4390.82    1701.383000
4392.45    1559.146000
4394.09    1397.544000
4395.73    1546.483000
4397.36    1248.668000
4399.00    1305.777000
4400.63    1065.551000
4402.27    1871.393000
4403.91    1574.756000
4405.54    1459.909000
4407.18    1304.076000
4408.81    1153.322000
4410.45    1346.617000
4412.09    1452.663000
4413.72    1599.355000
4415.36    1511.493000
4417.00    1310.965000
4418.63    1753.360000
4420.27    1476.202000
4421.90    1353.027000
4423.54    1670.726000
4425.18    1547.458000
4426.81    1305.130000
4428.45    1607.241000
4430.09    1398.522000
4431.72    1464.519000
4433.36    1926.548000
4434.99    1904.102000
4436.63    1720.267000
4438.27    1429.264000
4439.90    1524.902000
4441.54    1474.372000
4443.18    1575.003000
4444.81    1850.633000
4446.45    1547.062000
4448.08    1607.931000
4449.72    1393.462000
4451.36    1910.042000
4452.99    1377.928000
4454.63    1648.281000
4456.27    1678.322000
4457.90    1651.999000
4459.54    1539.556000
4461.17    1628.691000
4462.81    1791.762000
4464.45    1542.560000
4466.08    1777.664000
4467.72    1128.515000
4469.35    1294.188000
4470.99    1487.159000
4472.63    1640.910000
4474.26    1557.678000
4475.90    1622.827000
4477.54    1394.654000
4479.17    1408.461000
4480.81    1314.229000
4482.44    1120.618000
4484.08    958.346700
4485.72    1499.388000
4487.35    1496.437000
4488.99    1460.479000
4490.62    1297.014000
4492.26    1374.375000
4493.90    1298.613000
4495.53    1500.209000
4497.17    1574.646000
4498.81    1664.823000
4500.44    1865.099000
4502.08    1674.277000
4503.72    1424.609000
4505.35    1480.057000
4506.99    1382.203000
4508.62    1534.246000
4510.26    1578.116000
4511.90    1462.767000
4513.53    1510.648000
4515.17    1389.378000
4516.81    1241.183000
4518.44    1337.842000
4520.08    1516.459000
4521.71    1616.239000
4523.35    1615.958000
4524.99    1328.181000
4526.62    1583.548000
4528.26    1642.639000
4529.90    1428.016000
4531.53    1509.723000
4533.17    1544.647000
4534.80    1566.312000
4536.44    1495.411000
4538.08    1503.462000
4539.71    1578.622000
4541.35    1145.355000
4542.98    1449.386000
4544.62    1624.031000
4546.26    1463.192000
4547.89    1485.503000
4549.53    1465.214000
4551.17    1127.743000
4552.80    1450.862000
4554.44    1432.694000
4556.07    1304.271000
4557.71    1293.302000
4559.35    1604.269000
4560.98    1588.387000
4562.62    1268.886000
4564.26    1415.305000
4565.89    1310.803000
4567.53    1518.599000
4569.16    1549.847000
4570.80    1431.663000
4572.44    1286.606000
4574.07    1423.126000
4575.71    1432.007000
4577.35    1308.927000
4578.98    1333.613000
4580.62    1424.985000
4582.25    1524.036000
4583.89    1652.144000
4585.53    1641.301000
4587.16    1368.553000
4588.80    1424.774000
4590.43    1330.903000
4592.07    1532.983000
4593.71    1419.847000
4595.34    1565.915000
4596.98    1666.018000
4598.61    1570.316000
4600.25    1681.314000
4601.89    1622.541000
4603.52    1394.387000
4605.16    1464.588000
4606.80    1299.365000
4608.43    1509.527000
4610.07    1585.088000
4611.70    1427.436000
4613.34    1364.165000
4614.98    1459.019000
4616.61    1531.518000
4618.25    1618.457000
4619.89    1572.902000
4621.52    1540.460000
4623.16    1616.376000
4624.79    1371.005000
4626.43    1461.260000
4628.07    1594.182000
4629.70    1647.687000
4631.34    1716.524000
4632.98    1737.359000
4634.61    1676.036000
4636.25    1456.749000
4637.88    1642.713000
4639.52    1657.142000
4641.16    1542.462000
4642.79    1690.763000
4644.43    1661.520000
4646.06    1655.260000
4647.70    1774.172000
4649.34    1887.115000
4650.97    1952.547000
4652.61    1759.208000
4654.25    1901.372000
4655.88    1929.980000
4657.52    2083.907000
4659.15    1871.159000
4660.79    1831.353000
4662.43    1914.348000
4664.06    1783.642000
4665.70    1738.486000
4667.34    1844.563000
4668.97    1927.205000
4670.61    1825.755000
4672.24    1567.058000
4673.88    1586.969000
4675.52    1682.710000
4677.15    2017.186000
4678.79    1945.330000
4680.43    1646.284000
4682.06    1726.596000
4683.70    1915.798000
4685.33    2110.625000
4686.97    1924.549000
4688.61    1952.143000
4690.24    1894.202000
4691.88    1712.368000
4693.52    1763.792000
4695.15    1764.506000
4696.79    1595.391000
4698.42    1821.552000
4700.06    1986.802000
4701.70    1892.825000
4703.33    1981.920000
4704.97    1770.512000
4706.60    1822.072000
4708.24    1911.280000
4709.88    1815.940000
4711.51    1794.127000
4713.15    1718.886000
4714.79    1607.524000
4716.42    1724.341000
4718.06    1873.042000
4719.69    1842.477000
4721.33    1808.909000
4722.97    1814.746000
4724.60    1780.458000
4726.24    1739.811000
4727.88    1844.871000
4729.51    1992.284000
4731.15    1756.335000
4732.78    1584.837000
4734.42    1751.197000
4736.06    1801.620000
4737.69    1786.108000
4739.33    1926.569000
4740.97    1883.967000
4742.60    1741.428000
4744.24    1860.200000
4745.87    1831.482000
4747.51    1767.208000
4749.15    1884.707000
4750.78    2005.398000
4752.42    1803.657000
4754.06    1596.245000
4755.69    1620.591000
4757.33    1749.486000
4758.96    1725.606000
4760.60    1630.338000
4762.24    1656.162000
4763.87    1767.131000
4765.51    1637.420000
4767.15    1707.910000
4768.78    1869.229000
4770.42    1781.985000
4772.05    1809.757000
4773.69    1882.373000
4775.33    1598.108000
4776.96    1701.904000
4778.60    1529.023000
4780.23    1575.884000
4781.87    1765.788000
4783.51    1463.404000
4785.14    1320.744000
4786.78    1581.697000
4788.41    1577.840000
4790.05    1503.318000
4791.69    1466.841000
4793.32    1564.344000
4794.96    1502.509000
4796.60    1592.527000
4798.23    1561.086000
4799.87    1512.595000
4801.51    1682.303000
4803.14    1601.402000
4804.78    1657.583000
4806.41    1658.762000
4808.05    1514.070000
4809.69    1395.614000
4811.32    1464.625000
4812.96    1362.975000
4814.59    1607.564000
4816.23    1735.468000
4817.87    1541.561000
4819.50    1820.037000
4821.14    1674.108000
4822.77    1904.615000
4824.41    1829.588000
4826.05    1783.152000
4827.68    1663.676000
4829.32    1705.624000
4830.96    1706.941000
4832.59    1568.224000
4834.23    1240.492000
4835.86    1389.745000
4837.50    1798.740000
4839.14    1524.704000
4840.77    1557.673000
4842.41    1467.948000
4844.05    1352.339000
4845.68    1736.927000
4847.32    1817.714000
4848.95    1302.310000
4850.59    1446.698000
4852.23    1589.506000
4853.86    1495.849000
4855.50    1676.222000
4857.14    1844.414000
4858.77    1599.135000
4860.41    1774.467000
4862.04    1558.782000
4863.68    1680.813000
4865.32    1691.098000
4866.95    1509.141000
4868.59    1567.580000
4870.23    1485.335000
4871.86    1561.377000
4873.50    1698.192000
4875.13    1579.821000
4876.77    1407.394000
4878.41    1625.960000
4880.04    1680.929000
4881.68    1566.628000
4883.31    1476.028000
4884.95    1480.223000
4886.59    1289.527000
4888.22    1365.334000
4889.86    1361.381000
4891.50    1380.711000
4893.13    1259.358000
4894.77    1349.546000
4896.40    1441.857000
4898.04    1501.008000
4899.68    1530.003000
4901.31    1494.943000
4902.95    1515.211000
4904.59    1618.070000
4906.22    1409.296000
4907.86    1600.671000
4909.49    1535.133000
4911.13    1687.495000
4912.77    1510.634000
4914.40    1406.527000
4916.04    1353.725000
4917.68    1432.810000
4919.31    1556.150000
4920.95    1361.437000
4922.58    1729.699000
4924.22    1943.967000
4925.86    1670.824000
4927.49    1835.144000
4929.13    1609.169000
4930.77    1788.443000
4932.40    1856.528000
4934.04    1625.110000
4935.67    1816.603000
4937.31    1610.673000
4938.95    1652.829000
4940.58    1883.292000
4942.22    1699.521000
4943.85    1839.492000
4945.49    1754.616000
4947.13    1682.884000
4948.76    1534.951000
4950.40    1540.924000
4952.04    1868.357000
4953.67    1743.621000
4955.31    1751.766000
4956.94    1944.446000
4958.58    1728.637000
4960.22    1995.257000
4961.85    1801.671000
4963.49    1553.907000
4965.12    1735.967000
4966.76    1823.626000
4968.40    1783.823000
4970.03    1933.488000
4971.67    2006.765000
4973.31    2005.259000
4974.94    2050.853000
4976.58    2090.827000
4978.22    1937.207000
4979.85    1961.744000
4981.49    2096.413000
4983.12    1875.447000
4984.76    1853.681000
4986.40    1909.498000
4988.03    1787.444000
4989.67    1990.140000
4991.31    1990.172000
4992.94    1656.294000
4994.58    1781.525000
4996.21    1850.916000
4997.85    1915.214000
4999.49    1976.233000
5001.12    1909.036000
5002.76    2027.775000
5004.39    1786.349000
5006.03    1773.854000
5007.67    1984.801000
5009.30    1800.878000
5010.94    1946.373000
5012.57    1902.339000
5014.21    1768.556000
5015.85    1875.395000
5017.48    1939.647000
5019.12    2006.335000
5020.76    1855.727000
5022.39    1825.066000
5024.03    1700.648000
5025.66    1848.190000
5027.30    1938.687000
5028.94    1884.875000
5030.57    1858.945000
5032.21    1788.405000
5033.85    1933.265000
5035.48    1951.869000
5037.12    1762.702000
5038.75    1602.962000
5040.39    1685.933000
5042.03    1551.104000
5043.66    1692.174000
5045.30    1809.200000
5046.94    1679.817000
5048.57    1651.416000
5050.21    1814.713000
5051.84    1860.116000
5053.48    1841.111000
5055.12    1885.971000
5056.75    1896.321000
5058.39    1812.552000
5060.02    1841.253000
5061.66    1899.728000
5063.30    1977.413000
5064.93    2018.886000
5066.57    1829.757000
5068.21    1614.498000
5069.84    1738.642000
5071.48    1833.478000
5073.11    1909.011000
5074.75    1926.465000
5076.39    1834.528000
5078.02    1733.785000
5079.66    1875.370000
5081.30    1911.211000
5082.93    1801.933000
5084.57    1870.429000
5086.20    1814.053000
5087.84    1985.904000
5089.48    1939.592000
5091.11    1732.803000
5092.75    1659.706000
5094.39    1698.677000
5096.02    1905.378000
5097.66    1863.124000
5099.29    1659.681000
5100.93    1741.537000
5102.57    1837.309000
5104.20    1703.879000
5105.84    1626.931000
5107.48    1506.445000
5109.11    1592.947000
5110.75    1641.166000
5112.38    1585.436000
5114.02    1637.726000
5115.66    1665.262000
5117.29    1731.647000
5118.93    1725.693000
5120.56    1785.739000
5122.20    1739.750000
5123.84    1564.375000
5125.47    1512.764000
5127.11    1814.920000
5128.75    1682.803000
5130.38    1718.852000
5132.02    1666.472000
5133.65    1447.213000
5135.29    1670.116000
5136.93    1409.944000
5138.56    1490.655000
5140.20    1703.516000
5141.84    1608.936000
5143.47    1622.452000
5145.11    1567.208000
5146.74    1637.928000
5148.38    1742.665000
5150.02    1560.425000
5151.65    1558.662000
5153.29    1238.442000
5154.93    1310.863000
5156.56    1375.856000
5158.20    1469.366000
5159.83    1510.628000
5161.47    1864.191000
5163.11    1552.973000
5164.74    1543.118000
5166.38    1594.748000
5168.02    1469.304000
5169.65    1572.659000
5171.29    1687.436000
5172.92    1717.274000
5174.56    1427.925000
5176.20    1602.653000
5177.83    1366.317000
5179.47    1479.971000
5181.10    1510.702000
5182.74    1430.912000
5184.38    1359.626000
5186.01    1771.910000
5187.65    1668.791000
5189.29    1575.411000
5190.92    1504.456000
5192.56    1532.116000
5194.19    1235.974000
5195.83    1148.066000
5197.47    1255.783000
5199.10    985.483900
5200.74    976.287200
5202.38    1114.782000
5204.01    1533.664000
5205.65    1441.359000
5207.28    1345.606000
5208.92    1282.276000
5210.56    1274.601000
5212.19    1269.025000
5213.83    1345.560000
5215.47    1422.729000
5217.10    1427.798000
5218.74    1427.222000
5220.37    1415.257000
5222.01    1228.319000
5223.65    1479.332000
5225.28    1470.254000
5226.92    1501.206000
5228.56    1749.842000
5230.19    1342.989000
5231.83    1491.092000
5233.46    1409.531000
5235.10    1397.170000
5236.73    1407.381000
5238.37    1362.953000
5240.01    1335.989000
5241.64    1445.731000
5243.28    1386.085000
5244.92    1526.112000
5246.55    1491.902000
5248.19    1703.616000
5249.82    1676.789000
5251.46    1595.364000
5253.10    1416.705000
5254.73    1425.978000
5256.37    1451.445000
5258.01    1501.225000
5259.64    1576.541000
5261.28    1447.682000
5262.91    1546.511000
5264.55    1525.382000
5266.19    1575.788000
5267.82    1737.950000
5269.46    1606.029000
5271.10    1745.763000
5272.73    1882.053000
5274.37    1740.310000
5276.00    1559.565000
5277.64    1556.927000
5279.28    1395.593000
5280.91    1465.273000
5282.55    1543.062000
5284.19    1686.399000
5285.82    1809.709000
5287.46    1831.475000
5289.09    1773.289000
5290.73    1625.925000
5292.37    1528.301000
5294.00    1501.686000
5295.64    1439.474000
5297.27    1313.620000
5298.91    1263.995000
5300.55    1336.242000
5302.18    1618.957000
5303.82    1699.943000
5305.46    1821.450000
5307.09    1848.858000
5308.73    1845.205000
5310.36    1710.083000
5312.00    1865.057000
5313.64    2085.981000
5315.27    2028.420000
5316.91    1920.566000
5318.55    1820.647000
5320.18    2014.458000
5321.82    1992.535000
5323.45    1829.752000
5325.09    1787.646000
5326.73    1747.204000
5328.36    1670.014000
5330.00    1928.629000
5331.64    1983.211000
5333.27    1954.763000
5334.91    1982.737000
5336.54    2097.669000
5338.18    2139.736000
5339.82    2016.199000
5341.45    1867.915000
5343.09    2015.132000
5344.73    1966.174000
5346.36    2003.214000
5348.00    1972.010000
5349.63    1962.397000
5351.27    1963.342000
5352.91    1839.261000
5354.54    1819.299000
5356.18    1742.893000
5357.81    1748.916000
5359.45    1798.802000
5361.09    1794.565000
5362.72    1841.491000
5364.36    1906.341000
5366.00    1944.570000
5367.63    2038.900000
5369.27    2212.341000
5370.90    1797.392000
5372.54    2025.951000
5374.18    2020.263000
5375.81    1946.521000
5377.45    2028.322000
5379.09    1817.780000
5380.72    2026.347000
5382.36    2124.916000
5383.99    2125.941000
5385.63    2245.531000
5387.27    2333.453000
5388.90    2177.544000
5390.54    2077.385000
5392.18    2098.650000
5393.81    2033.091000
5395.45    2114.398000
5397.08    2010.608000
5398.72    2073.496000
5400.36    2001.633000
5401.99    1865.349000
5403.63    2130.478000
5405.27    2082.667000
5406.90    1904.057000
5408.54    1980.304000
5410.17    1986.018000
5411.81    2022.430000
5413.45    2021.522000
5415.08    2017.937000
5416.72    2012.466000
5418.35    1798.851000
5419.99    1866.646000
5421.63    1930.766000
5423.26    1870.777000
5424.90    1832.800000
5426.53    1801.795000
5428.17    1860.018000
5429.81    1918.635000
5431.44    1900.700000
5433.08    1838.194000
5434.72    1840.768000
5436.35    1886.178000
5437.99    1720.674000
5439.62    1911.253000
5441.26    1993.833000
5442.90    1923.169000
5444.53    1926.029000
5446.17    1913.194000
5447.81    1981.234000
5449.44    2007.196000
5451.08    1996.243000
5452.72    1959.548000
5454.35    1951.082000
5455.99    1920.042000
5457.62    1825.288000
5459.26    1779.028000
5460.90    1970.523000
5462.53    1932.286000
5464.17    1830.985000
5465.80    1755.883000
5467.44    1936.306000
5469.08    2003.186000
5470.71    1942.918000
5472.35    1953.615000
5473.98    1923.836000
5475.62    1795.344000
5477.26    1760.018000
5478.89    1769.929000
5480.53    1840.685000
5482.17    1884.464000
5483.80    1788.084000
5485.44    1729.346000
5487.07    1792.438000
5488.71    1738.208000
5490.35    1744.898000
5491.98    1718.407000
5493.62    1802.137000
5495.26    1880.897000
5496.89    1918.962000
5498.53    1797.788000
5500.16    1700.113000
5501.80    1894.917000
5503.44    1748.749000
5505.07    1680.219000
5506.71    1746.794000
5508.35    1659.890000
5509.98    1674.173000
5511.62    1697.388000
5513.25    1813.224000
5514.89    1665.321000
5516.53    2027.911000
5518.16    1759.041000
5519.80    1891.042000
5521.44    1746.929000
5523.07    1904.136000
5524.71    1795.647000
5526.34    1518.049000
5527.98    1610.319000
5529.62    1752.098000
5531.25    1828.140000
5532.89    1649.944000
5534.52    1501.007000
5536.16    1685.975000
5537.80    1654.641000
5539.43    1761.594000
5541.07    1588.829000
5542.71    1373.276000
5544.34    1565.349000
5545.98    1517.574000
5547.61    1686.803000
5549.25    1845.023000
5550.89    1778.130000
5552.52    1746.354000
5554.16    1929.403000
5555.80    1659.522000
5557.43    1663.161000
5559.07    1704.965000
5560.70    1551.093000
5562.34    1539.168000
5563.98    1608.729000
5565.61    1600.293000
5567.25    1634.971000
5568.89    1807.446000
5570.52    1629.650000
5572.16    1513.086000
5573.79    1029.807000
5575.43    1210.235000
5577.07    2813.877000
5578.70    3133.271000
5580.34    1754.363000
5581.98    592.556700
5583.61    530.134400
5585.25    827.809100
5586.88    1169.793000
5588.52    1493.520000
5590.16    655.361300
5591.79    1461.697000
5593.43    1457.084000
5595.06    1470.162000
5596.70    1436.017000
5598.34    1377.543000
5599.97    1399.337000
5601.61    1516.230000
5603.24    1509.957000
5604.88    1413.507000
5606.52    1412.609000
5608.15    1428.671000
5609.79    1406.018000
5611.43    1341.202000
5613.06    1509.797000
5614.70    1528.984000
5616.34    1511.469000
5617.97    1447.497000
5619.61    1343.414000
5621.24    1320.288000
5622.88    1330.426000
5624.52    1406.325000
5626.15    1341.175000
5627.79    1360.192000
5629.43    1404.514000
5631.06    1498.886000
5632.70    1446.391000
5634.33    1430.580000
5635.97    1405.232000
5637.60    1310.742000
5639.24    1319.573000
5640.88    1379.184000
5642.51    1442.757000
5644.15    1420.889000
5645.79    1420.431000
5647.42    1375.425000
5649.06    1299.387000
5650.69    1161.329000
5652.33    1249.544000
5653.97    1256.784000
5655.60    1214.982000
5657.24    1357.914000
5658.88    1446.668000
5660.51    1434.515000
5662.15    1328.159000
5663.78    1437.345000
5665.42    1464.446000
5667.06    1429.917000
5668.69    1314.745000
5670.33    1316.157000
5671.97    1336.156000
5673.60    1347.055000
5675.24    1346.523000
5676.88    1374.262000
5678.51    1462.465000
5680.15    1536.921000
5681.78    1565.646000
5683.42    1466.297000
5685.06    1391.408000
5686.69    1332.591000
5688.33    1325.758000
5689.96    1315.653000
5691.60    1287.074000
5693.24    1262.821000
5694.87    1307.765000
5696.51    1345.089000
5698.15    1361.161000
5699.78    1364.191000
5701.42    1350.423000
5703.05    1339.652000
5704.69    1374.624000
5706.33    1431.119000
5707.96    1369.307000
5709.60    1412.430000
5711.23    1470.059000
5712.87    1543.575000
5714.51    1396.463000
5716.14    1418.324000
5717.78    1456.421000
5719.42    1519.959000
5721.05    1348.488000
5722.69    1365.891000
5724.32    1405.945000
5725.96    1481.420000
5727.60    1505.568000
5729.23    1539.174000
5730.87    1525.999000
5732.51    1398.224000
5734.14    1390.704000
5735.78    1423.666000
5737.41    1440.272000
5739.05    1382.698000
5740.69    1383.306000
5742.32    1369.018000
5743.96    1371.399000
5745.60    1492.056000
5747.23    1400.312000
5748.87    1393.838000
5750.50    1432.368000
5752.14    1617.847000
5753.78    1592.330000
5755.41    1624.179000
5757.05    1681.743000
5758.69    1671.063000
5760.32    1547.503000
5761.96    1543.508000
5763.59    1625.083000
5765.23    1667.922000
5766.87    1629.425000
5768.50    1632.477000
5770.14    1680.636000
5771.77    1653.792000
5773.41    1723.708000
5775.05    1747.919000
5776.68    1706.489000
5778.32    1663.281000
5779.96    1682.136000
5781.59    1703.624000
5783.23    1726.227000
5784.86    1738.213000
5786.50    1667.255000
5788.14    1621.271000
5789.77    1698.344000
5791.41    1656.000000
5793.05    1680.412000
5794.68    1723.957000
5796.32    1795.034000
5797.95    1731.263000
5799.59    1746.215000
5801.23    1786.023000
5802.86    1842.154000
5804.50    1781.206000
5806.14    1734.691000
5807.77    1697.969000
5809.41    1769.219000
5811.04    1811.497000
5812.68    1796.725000
5814.32    1739.158000
5815.95    1702.056000
5817.59    1684.738000
5819.23    1733.022000
5820.86    1849.370000
5822.50    1939.075000
5824.13    1875.233000
5825.77    1865.992000
5827.40    1945.594000
5829.04    1979.415000
5830.68    1935.904000
5832.31    1922.697000
5833.95    1984.035000
5835.59    1869.558000
5837.22    1841.629000
5838.86    1850.735000
5840.49    1944.174000
5842.13    1989.013000
5843.77    1976.567000
5845.40    1963.919000
5847.04    2007.152000
5848.68    1919.968000
5850.31    1897.690000
5851.95    1905.614000
5853.59    2014.536000
5855.22    1898.469000
5856.86    1909.206000
5858.49    1978.592000
5860.13    2114.667000
5861.77    2089.465000
5863.40    2058.550000
5865.04    2019.229000
5866.67    2000.403000
5868.31    1972.726000
5869.95    1982.944000
5871.58    2027.908000
5873.22    2066.261000
5874.85    1974.387000
5876.49    1854.898000
5878.13    1699.890000
5879.76    1816.580000
5881.40    1815.887000
5883.04    1797.873000
5884.67    1761.964000
5886.31    1889.532000
5887.94    1903.794000
5889.58    1873.141000
5891.22    1762.551000
5892.85    1667.003000
5894.49    1660.243000
5896.13    1673.473000
5897.76    1710.194000
5899.40    1764.481000
5901.03    1856.452000
5902.67    1948.680000
5904.31    2000.762000
5905.94    1971.174000
5907.58    1909.427000
5909.22    1831.114000
5910.85    1761.261000
5912.49    1789.192000
5914.12    1743.714000
5915.76    1665.125000
5917.40    1849.344000
5919.03    1739.410000
5920.67    1602.644000
5922.31    1432.419000
5923.94    1408.723000
5925.58    1427.043000
5927.21    1462.729000
5928.85    1522.102000
5930.49    1597.808000
5932.12    1616.664000
5933.76    1680.287000
5935.40    1830.916000
5937.03    1904.716000
5938.67    1776.070000
5940.30    1687.279000
5941.94    1731.660000
5943.58    1726.996000
5945.21    1720.611000
5946.85    1714.813000
5948.48    1717.834000
5950.12    1697.942000
5951.76    1709.942000
5953.39    1728.650000
5955.03    1761.230000
5956.67    1730.839000
5958.30    1810.298000
5959.94    1902.765000
5961.57    1785.889000
5963.21    1696.956000
5964.85    1694.356000
5966.48    1727.888000
5968.12    1692.518000
5969.76    1687.500000
5971.39    1681.124000
5973.03    1670.532000
5974.66    1732.249000
5976.30    1681.536000
5977.94    1648.302000
5979.57    1631.811000
5981.21    1689.140000
5982.85    1709.660000
5984.48    1716.145000
5986.12    1707.644000
5987.75    1642.845000
5989.39    1608.797000
5991.03    1558.092000
5992.66    1468.381000
5994.30    1534.710000
5995.94    1598.644000
5997.57    1651.684000
5999.21    1682.939000
6000.84    1583.649000
6002.48    1548.988000
6004.12    1550.550000
6005.75    1668.722000
6007.39    1533.162000
6009.02    1475.136000
6010.66    1451.609000
6012.30    1520.023000
6013.93    1543.857000
6015.57    1564.850000
6017.20    1576.091000
6018.84    1497.971000
6020.48    1507.935000
6022.11    1528.516000
6023.75    1554.695000
6025.39    1611.201000
6027.02    1609.186000
6028.66    1580.029000
6030.30    1525.415000
6031.93    1447.747000
6033.57    1527.983000
6035.20    1571.071000
6036.84    1569.058000
6038.48    1406.187000
6040.11    1383.644000
6041.75    1400.123000
6043.39    1482.028000
6045.02    1439.622000
6046.66    1435.552000
6048.29    1442.551000
6049.93    1472.972000
6051.56    1331.674000
6053.20    1318.165000
6054.84    1349.214000
6056.48    1475.248000
6058.11    1467.546000
6059.75    1463.008000
6061.38    1459.836000
6063.02    1469.581000
6064.65    1558.541000
6066.29    1534.539000
6067.93    1470.996000
6069.56    1507.413000
6071.20    1483.292000
6072.84    1477.064000
6074.47    1478.206000
6076.11    1487.780000
6077.74    1418.115000
6079.38    1402.113000
6081.02    1429.209000
6082.65    1414.734000
6084.29    1407.098000
6085.93    1389.290000
6087.56    1358.403000
6089.20    1422.535000
6090.84    1494.517000
6092.47    1506.185000
6094.11    1420.110000
6095.74    1363.113000
6097.38    1390.325000
6099.02    1413.811000
6100.65    1414.812000
6102.29    1384.628000
6103.92    1448.731000
6105.56    1495.967000
6107.20    1442.015000
6108.83    1434.847000
6110.47    1384.167000
6112.10    1325.672000
6113.74    1294.731000
6115.38    1313.126000
6117.01    1376.535000
6118.65    1451.241000
6120.29    1474.232000
6121.92    1391.389000
6123.56    1382.453000
6125.19    1412.607000
6126.83    1500.377000
6128.47    1436.321000
6130.10    1405.088000
6131.74    1394.780000
6133.38    1464.775000
6135.01    1311.421000
6136.65    1274.863000
6138.28    1360.552000
6139.92    1314.735000
6141.56    1346.375000
6143.19    1425.102000
6144.83    1585.747000
6146.47    1507.874000
6148.10    1454.895000
6149.74    1419.913000
6151.37    1420.975000
6153.01    1333.632000
6154.65    1361.324000
6156.28    1386.328000
6157.92    1361.554000
6159.56    1401.437000
6161.19    1443.104000
6162.83    1476.059000
6164.46    1472.011000
6166.10    1435.895000
6167.74    1414.414000
6169.37    1397.545000
6171.01    1395.718000
6172.65    1363.945000
6174.28    1398.048000
6175.92    1453.727000
6177.55    1386.585000
6179.19    1392.091000
6180.83    1395.769000
6182.46    1396.865000
6184.10    1425.221000
6185.73    1398.244000
6187.37    1362.442000
6189.01    1314.120000
6190.64    1486.927000
6192.28    1385.508000
6193.92    1321.666000
6195.55    1316.207000
6197.19    1376.592000
6198.82    1376.726000
6200.46    1373.300000
6202.10    1374.519000
6203.73    1375.167000
6205.37    1440.212000
6207.01    1500.656000
6208.64    1540.124000
6210.28    1459.875000
6211.91    1486.568000
6213.55    1516.555000
6215.19    1477.769000
6216.82    1530.831000
6218.46    1479.492000
6220.10    1419.536000
6221.73    1521.547000
6223.37    1481.067000
6225.00    1517.308000
6226.64    1568.320000
6228.28    1426.948000
6229.91    1517.867000
6231.55    1553.964000
6233.19    1551.148000
6234.82    1403.923000
6236.46    1457.056000
6238.09    1493.736000
6239.73    1518.051000
6241.36    1631.222000
6243.00    1641.725000
6244.64    1618.610000
6246.27    1556.627000
6247.91    1449.300000
6249.55    1514.917000
6251.18    1545.049000
6252.82    1503.235000
6254.45    1487.776000
6256.09    1527.666000
6257.73    1559.934000
6259.36    1570.020000
6261.00    1598.835000
6262.64    1488.931000
6264.27    1403.808000
6265.91    1504.723000
6267.55    1466.429000
6269.18    1555.525000
6270.82    1650.960000
6272.45    1592.181000
6274.09    1478.290000
6275.73    1529.991000
6277.36    1620.115000
6279.00    1474.362000
6280.64    1459.769000
6282.27    1518.342000
6283.91    1614.058000
6285.54    1618.691000
6287.18    1582.035000
6288.81    1583.854000
6290.45    1609.993000
6292.09    1547.559000
6293.72    1485.021000
6295.36    1449.761000
6297.00    1442.099000
6298.63    1745.749000
6300.27    1807.523000
6301.90    1787.771000
6303.54    1652.840000
6305.18    1610.175000
6306.81    1627.658000
6308.45    1633.712000
6310.09    1610.814000
6311.72    1704.376000
6313.36    1685.304000
6314.99    1667.776000
6316.63    1718.194000
6318.27    1727.440000
6319.90    1695.237000
6321.54    1662.500000
6323.18    1685.962000
6324.81    1769.016000
6326.45    1768.735000
6328.08    1755.301000
6329.72    1890.488000
6331.36    1652.890000
6332.99    1555.044000
6334.63    1532.946000
6336.27    1704.530000
6337.90    1697.883000
6339.54    1659.627000
6341.17    1595.280000
6342.81    1765.753000
6344.45    1770.375000
6346.08    1748.343000
6347.72    1697.091000
6349.35    1788.249000
6350.99    1750.228000
6352.63    1737.474000
6354.26    1770.388000
6355.90    1871.675000
6357.54    1778.633000
6359.17    1704.895000
6360.81    1703.062000
6362.44    1763.199000
6364.08    1821.227000
6365.72    1845.683000
6367.35    1777.668000
6368.99    1729.139000
6370.63    1697.925000
6372.26    1687.379000
6373.90    1760.396000
6375.53    1750.790000
6377.17    1757.781000
6378.81    1786.646000
6380.44    1947.973000
6382.08    1867.382000
6383.72    1777.582000
6385.35    1697.278000
6386.99    1860.613000
6388.62    1731.359000
6390.26    1732.307000
6391.90    1808.798000
6393.53    1796.175000
6395.17    1658.096000
6396.81    1616.875000
6398.44    1661.904000
6400.08    1641.265000
6401.71    1612.266000
6403.35    1634.503000
6404.99    1732.067000
6406.62    1680.957000
6408.26    1695.608000
6409.90    1716.088000
6411.53    1751.322000
6413.17    1813.226000
6414.80    1747.973000
6416.44    1712.803000
6418.08    1800.406000
6419.71    1657.320000
6421.35    1686.232000
6422.98    1732.629000
6424.62    1729.823000
6426.26    1687.426000
6427.89    1706.060000
6429.53    1726.933000
6431.16    1671.345000
6432.80    1754.005000
6434.44    1697.467000
6436.07    1601.891000
6437.71    1728.000000
6439.35    1731.472000
6440.98    1742.019000
6442.62    1745.820000
6444.26    1602.375000
6445.89    1610.187000
6447.53    1576.151000
6449.16    1503.624000
6450.80    1590.629000
6452.44    1573.021000
6454.07    1604.743000
6455.71    1699.191000
6457.35    1627.526000
6458.98    1615.017000
6460.62    1625.818000
6462.25    1681.157000
6463.89    1612.637000
6465.52    1609.623000
6467.16    1594.124000
6468.80    1540.726000
6470.44    1479.728000
6472.07    1526.862000
6473.71    1566.419000
6475.34    1524.182000
6476.98    1497.117000
6478.61    1504.953000
6480.25    1520.440000
6481.89    1541.465000
6483.52    1559.818000
6485.16    1546.548000
6486.80    1508.453000
6488.43    1375.030000
6490.07    1496.694000
6491.70    1518.423000
6493.34    1483.999000
6494.98    1435.515000
6496.61    1484.045000
6498.25    1504.861000
6499.89    1502.021000
6501.52    1396.667000
6503.16    1484.791000
6504.80    1539.904000
6506.43    1563.465000
6508.07    1561.611000
6509.70    1497.296000
6511.34    1497.801000
6512.98    1608.656000
6514.61    1440.240000
6516.25    1403.655000
6517.88    1427.371000
6519.52    1570.367000
6521.16    1494.144000
6522.79    1455.021000
6524.43    1431.262000
6526.06    1442.169000
6527.70    1389.438000
6529.34    1296.591000
6530.97    1202.662000
6532.61    1154.677000
6534.25    1297.230000
6535.88    1300.198000
6537.52    1282.299000
6539.15    1459.168000
6540.79    1371.651000
6542.43    1328.810000
6544.06    1307.104000
6545.70    1359.851000
6547.34    1384.121000
6548.97    1342.123000
6550.61    1256.204000
6552.24    1417.968000
6553.88    1353.568000
6555.52    1362.290000
6557.15    1442.624000
6558.79    1326.639000
6560.43    1330.681000
6562.06    1342.849000
6563.70    1370.810000
6565.33    1443.340000
6566.97    1502.685000
6568.61    1501.339000
6570.24    1389.227000
6571.88    1326.051000
6573.52    1375.939000
6575.15    1406.499000
6576.79    1349.046000
6578.42    1353.381000
6580.06    1371.841000
6581.70    1383.407000
6583.33    1362.903000
6584.97    1381.985000
6586.60    1419.841000
6588.24    1439.847000
6589.88    1313.767000
6591.51    1298.256000
6593.15    1260.867000
6594.79    1231.900000
6596.42    1451.639000
6598.06    1550.245000
6599.69    1588.908000
6601.33    1586.004000
6602.97    1460.003000
6604.60    1358.667000
6606.24    1306.612000
6607.88    1294.104000
6609.51    1138.699000
6611.15    1185.291000
6612.78    1250.940000
6614.42    1350.293000
6616.06    1275.004000
6617.69    1439.817000
6619.33    1558.357000
6620.97    1592.104000
6622.60    1430.484000
6624.24    1337.778000
6625.87    1268.743000
6627.51    1238.783000
6629.15    1209.199000
6630.78    1298.313000
6632.42    1356.481000
6634.06    1231.797000
6635.69    1231.725000
6637.33    1281.249000
6638.96    1326.393000
6640.60    1276.657000
6642.24    1273.821000
6643.87    1282.300000
6645.51    1295.068000
6647.15    1332.375000
6648.78    1321.363000
6650.42    1305.995000
6652.05    1288.184000
6653.69    1328.571000
6655.32    1319.156000
6656.96    1297.364000
6658.60    1261.474000
6660.23    1268.098000
6661.87    1231.338000
6663.51    1246.686000
6665.14    1323.232000
6666.78    1209.944000
6668.41    1231.927000
6670.05    1274.636000
6671.69    1353.274000
6673.32    1252.131000
6674.96    1261.260000
6676.60    1275.927000
6678.23    1285.705000
6679.87    1230.132000
6681.51    1226.660000
6683.14    1236.640000
6684.78    1271.849000
6686.41    1212.326000
6688.05    1251.067000
6689.69    1291.896000
6691.32    1233.215000
6692.96    1188.088000
6694.60    1231.044000
6696.23    1297.103000
6697.87    1316.329000
6699.50    1275.232000
6701.14    1273.427000
6702.77    1290.080000
6704.41    1320.392000
6706.05    1287.267000
6707.68    1311.514000
6709.32    1373.260000
6710.96    1361.061000
6712.59    1258.039000
6714.23    1218.467000
6715.86    1241.490000
6717.50    1310.221000
6719.14    1295.416000
6720.77    1290.055000
6722.41    1306.805000
6724.05    1417.195000
6725.68    1439.729000
6727.32    1428.277000
6728.95    1361.797000
6730.59    1370.800000
6732.23    1362.646000
6733.86    1355.227000
6735.50    1362.481000
6737.14    1313.170000
6738.77    1297.921000
6740.41    1290.463000
6742.04    1291.729000
6743.68    1330.679000
6745.32    1326.887000
6746.95    1307.310000
6748.59    1291.757000
6750.23    1273.298000
6751.86    1291.058000
6753.50    1330.233000
6755.13    1442.060000
6756.77    1432.706000
6758.41    1407.358000
6760.04    1367.777000
6761.68    1349.900000
6763.31    1407.979000
6764.95    1437.247000
6766.59    1444.012000
6768.22    1327.123000
6769.86    1443.151000
6771.50    1466.536000
6773.13    1372.089000
6774.77    1359.994000
6776.40    1403.747000
6778.04    1403.030000
6779.68    1316.135000
6781.31    1364.830000
6782.95    1317.352000
6784.59    1291.550000
6786.22    1356.803000
6787.86    1404.618000
6789.49    1417.637000
6791.13    1415.248000
6792.77    1383.152000
6794.40    1337.475000
6796.04    1354.108000
6797.68    1386.440000
6799.31    1425.027000
6800.95    1460.064000
6802.58    1431.265000
6804.22    1373.776000
6805.86    1319.331000
6807.49    1431.503000
6809.13    1467.165000
6810.77    1459.705000
6812.40    1494.362000
6814.04    1455.039000
6815.67    1429.865000
6817.31    1413.293000
6818.95    1382.361000
6820.58    1401.133000
6822.22    1444.154000
6823.85    1520.694000
6825.49    1442.803000
6827.13    1442.288000
6828.76    1453.274000
6830.40    1482.803000
6832.04    1413.869000
6833.67    1432.723000
6835.31    1459.482000
6836.94    1493.481000
6838.58    1398.122000
6840.22    1429.044000
6841.85    1461.042000
6843.49    1431.890000
6845.12    1414.004000
6846.76    1390.490000
6848.40    1379.681000
6850.03    1460.586000
6851.67    1482.761000
6853.31    1487.605000
6854.94    1478.587000
6856.58    1419.522000
6858.22    1482.783000
6859.85    1465.679000
6861.49    1412.221000
6863.12    1516.484000
6864.76    1586.209000
6866.40    1494.246000
6868.03    1274.012000
6869.67    994.532600
6871.31    993.908600
6872.94    1033.502000
6874.58    1120.194000
6876.21    1152.923000
6877.85    1180.183000
6879.48    1239.767000
6881.12    1357.926000
6882.76    1404.043000
6884.40    1359.908000
6886.03    1321.356000
6887.67    1311.800000
6889.30    1245.073000
6890.94    1240.168000
6892.57    1251.116000
6894.21    1289.543000
6895.85    1316.688000
6897.48    1367.620000
6899.12    1403.112000
6900.76    1354.983000
6902.39    1324.154000
6904.03    1355.017000
6905.66    1397.206000
6907.30    1379.270000
6908.94    1408.198000
6910.57    1410.772000
6912.21    1401.225000
6913.85    1427.857000
6915.48    1497.985000
6917.12    1492.081000
6918.76    1433.959000
6920.39    1428.799000
6922.03    1427.494000
6923.66    1443.703000
6925.30    1479.485000
6926.94    1455.127000
6928.57    1384.229000
6930.21    1350.798000
6931.84    1370.961000
6933.48    1405.276000
6935.12    1446.391000
6936.75    1459.104000
6938.39    1421.649000
6940.02    1400.240000
6941.66    1385.565000
6943.30    1367.296000
6944.93    1339.528000
6946.57    1381.773000
6948.21    1405.849000
6949.84    1419.294000
6951.48    1416.234000
6953.11    1450.719000
6954.75    1403.786000
6956.39    1336.351000
6958.02    1306.976000
6959.66    1372.757000
6961.30    1391.930000
6962.93    1390.646000
6964.57    1399.114000
6966.20    1451.771000
6967.84    1500.496000
6969.48    1542.999000
6971.11    1464.622000
6972.75    1423.816000
6974.39    1442.502000
6976.02    1515.576000
6977.66    1543.855000
6979.29    1536.865000
6980.93    1506.375000
6982.57    1447.532000
6984.20    1381.592000
6985.84    1397.742000
6987.48    1424.795000
6989.11    1471.990000
6990.75    1349.960000
6992.38    1362.927000
6994.02    1387.059000
6995.66    1410.431000
6997.29    1422.738000
6998.93    1424.233000
7000.56    1418.764000
7002.20    1405.700000
7003.84    1429.033000
7005.47    1423.997000
7007.11    1412.126000
7008.75    1412.404000
7010.38    1388.029000
7012.02    1360.827000
7013.65    1329.244000
7015.29    1296.947000
7016.93    1297.486000
7018.56    1300.014000
7020.20    1302.339000
7021.84    1310.325000
7023.47    1345.709000
7025.11    1367.529000
7026.74    1377.850000
7028.38    1401.780000
7030.02    1376.675000
7031.65    1358.052000
7033.29    1343.338000
7034.93    1320.437000
7036.56    1308.172000
7038.20    1300.490000
7039.83    1303.384000
7041.47    1223.573000
7043.11    1267.174000
7044.74    1328.014000
7046.38    1414.165000
7048.02    1370.479000
7049.65    1339.557000
7051.29    1312.369000
7052.92    1299.085000
7054.56    1252.167000
7056.20    1214.216000
7057.83    1186.458000
7059.47    1206.107000
7061.10    1217.318000
7062.74    1190.479000
7064.38    1153.554000
7066.01    1161.579000
7067.65    1169.917000
7069.28    1190.094000
7070.92    1218.350000
7072.56    1285.199000
7074.19    1227.649000
7075.83    1203.828000
7077.47    1200.770000
7079.10    1231.207000
7080.74    1235.715000
7082.38    1255.002000
7084.01    1289.602000
7085.65    1226.908000
7087.28    1261.446000
7088.92    1273.357000
7090.56    1254.493000
7092.19    1144.192000
7093.83    1145.296000
7095.47    1149.314000
7097.10    1146.808000
7098.74    1114.698000
7100.37    1137.053000
7102.01    1148.859000
7103.65    1116.604000
7105.28    1062.441000
7106.92    1078.304000
7108.56    1105.286000
7110.19    1122.276000
7111.83    1105.422000
7113.46    1118.804000
7115.10    1137.621000
7116.73    1139.016000
7118.37    1122.797000
7120.01    1112.849000
7121.64    1102.007000
7123.28    1068.008000
7124.92    1059.653000
7126.55    1069.472000
7128.19    1086.980000
7129.82    1015.305000
7131.46    980.903200
7133.10    976.238900
7134.73    997.664200
7136.37    999.851900
7138.01    985.819200
7139.64    984.137200
7141.28    1002.155000
7142.91    1000.167000
7144.55    969.348400
7146.19    952.627400
7147.82    966.461800
7149.46    898.681000
7151.10    922.236600
7152.73    957.671900
7154.37    1006.426000
7156.00    970.017100
7157.64    973.826500
7159.28    979.498000
7160.91    967.499600
7162.55    959.139100
7164.19    946.032700
7165.82    928.935500
7167.46    905.309100
7169.09    836.132900
7170.73    799.456900
7172.37    777.508700
7174.00    794.846900
7175.64    790.686900
7177.27    811.660600
7178.91    841.448700
7180.55    745.688800
7182.18    755.568100
7183.82    768.272700
7185.46    781.340500
7187.09    710.827000
7188.73    736.828500
7190.36    753.704600
7192.00    760.617800
7193.64    787.198500
7195.27    776.562400
7196.91    751.869400
7198.55    705.739700
7200.18    777.620700
7201.82    755.210800
7203.45    726.202100
7205.09    704.478600
7206.73    748.913100
7208.36    783.286300
7210.00    809.125400
7211.64    815.102200
7213.27    885.635900
7214.91    903.616000
7216.54    898.282400
7218.18    844.429100
7219.82    830.631400
7221.45    870.924300
7223.09    919.146400
7224.73    864.966200
7226.36    850.092700
7228.00    815.707600
7229.63    768.486300
7231.27    725.509200
7232.91    744.597400
7234.54    711.761400
7236.18    638.787400
7237.81    761.163000
7239.45    766.754000
7241.09    753.233000
7242.72    718.003200
7244.36    703.979600
7246.00    719.573200
7247.63    706.604900
7249.27    649.464000
7250.90    702.996100
7252.54    717.430500
7254.18    721.088300
7255.81    712.431800
7257.45    802.806800
7259.09    801.177000
7260.72    777.940700
7262.36    728.531500
7263.99    733.331100
7265.63    751.565200
7267.27    769.748400
7268.90    778.811000
7270.54    793.178800
7272.18    805.763300
7273.81    810.417000
7275.45    765.070700
7277.08    727.662800
7278.72    688.874600
7280.36    650.460300
7281.99    661.502400
7283.63    764.495000
7285.27    790.566400
7286.90    764.207200
7288.54    719.252600
7290.17    783.479600
7291.81    797.956800
7293.44    766.034800
7295.08    760.243900
7296.72    736.996800
7298.35    749.508200
7299.99    815.253700
7301.63    813.928600
7303.26    764.575300
7304.90    744.925000
7306.53    791.532800
7308.17    851.893400
7309.81    855.991900
7311.44    847.115600
7313.08    822.802300
7314.72    880.332300
7316.35    863.071500
7317.99    822.864700
7319.62    751.727500
7321.26    745.212400
7322.90    781.933800
7324.53    833.131000
7326.17    896.790600
7327.81    912.887200
7329.44    903.356000
7331.08    883.185100
7332.72    880.793500
7334.35    856.534500
7335.99    868.819200
7337.62    902.727000
7339.26    972.438200
7340.90    956.718400
7342.53    880.796800
7344.17    748.319400
7345.80    826.795700
7347.44    883.646500
7349.08    883.933500
7350.71    815.797500
7352.35    857.115500
7353.98    896.433600
7355.62    914.125200
7357.26    899.942400
7358.89    908.236000
7360.53    929.594200
7362.17    937.863200
7363.80    912.976400
7365.44    963.032500
7367.07    965.159800
7368.71    965.370800
7370.35    994.215100
7371.98    973.037100
7373.62    990.235900
7375.26    1012.484000
7376.89    1011.429000
7378.53    927.393400
7380.16    903.673700
7381.80    902.679000
7383.44    915.948100
7385.07    953.969800
7386.71    958.362100
7388.35    945.310400
7389.98    993.687600
7391.62    1032.174000
7393.25    1025.674000
7394.89    981.820600
7396.53    940.718400
7398.16    942.192900
7399.80    960.223800
7401.44    998.006200
7403.07    978.785600
7404.71    979.573000
7406.34    969.472800
7407.98    944.456200
7409.62    979.970300
7411.25    978.700300
7412.89    974.313400
7414.52    972.230800
7416.16    929.626900
7417.80    932.388900
7419.43    943.227500
7421.07    963.528900
7422.71    956.345900
7424.34    956.334800
7425.98    957.478600
7427.61    960.793300
7429.25    998.754300
7430.89    998.985200
7432.52    983.626500
7434.16    955.560700
7435.80    935.713000
7437.43    938.778700
7439.07    952.096400
7440.70    983.908600
7442.34    1003.817000
7443.98    994.790600
7445.61    963.590000
7447.25    964.698000
7448.89    995.040200
7450.52    1016.254000
7452.16    1029.920000
7453.79    1006.124000
7455.43    1042.570000
7457.07    1056.826000
7458.70    1043.036000
7460.34    967.688700
7461.98    959.170500
7463.61    972.948400
7465.25    1026.851000
7466.88    1040.087000
7468.52    1029.413000
7470.16    1018.645000
7471.79    1020.642000
7473.43    1053.909000
7475.06    1064.882000
7476.70    1066.873000
7478.34    1054.364000
7479.97    1059.979000
7481.61    1055.967000
7483.24    1054.297000
7484.88    1096.358000
7486.52    1080.872000
7488.15    1073.201000
7489.79    1067.682000
7491.43    1082.599000
7493.06    1066.887000
7494.70    1088.527000
7496.34    1129.330000
7497.97    1055.353000
7499.61    1057.279000
7501.24    1077.369000
7502.88    1115.703000
7504.52    1024.781000
7506.15    1044.618000
7507.79    1042.842000
7509.43    1015.878000
7511.06    1058.421000
7512.70    1009.068000
7514.33    1010.976000
7515.97    1120.579000
7517.60    1040.045000
7519.24    1061.582000
7520.88    1091.263000
7522.52    1119.577000
7524.15    1102.785000
7525.79    1054.939000
7527.42    1018.362000
7529.06    1050.287000
7530.69    998.644700
7532.33    996.254900
7533.97    1008.233000
7535.60    1031.091000
7537.24    997.247900
7538.88    1012.673000
7540.51    1041.644000
7542.15    1027.343000
7543.78    1021.047000
7545.42    1049.379000
7547.06    1091.891000
7548.69    1014.970000
7550.33    1035.113000
7551.97    1061.065000
7553.60    1090.458000
7555.24    982.342900
7556.88    1058.712000
7558.51    1068.102000
7560.15    999.315400
7561.78    1036.492000
7563.42    1020.383000
7565.06    1019.367000
7566.69    1049.812000
7568.33    985.223100
7569.96    1054.408000
7571.60    1103.480000
7573.24    1083.313000
7574.87    1080.923000
7576.51    1065.074000
7578.15    1037.534000
