#Regenerated by NED personnel from published spectrum with using UN-SCAN-IT Software.
#Heliocentric Velocity     Flux Density 
#[km/s]                     [mJy]
 3671.920                   2.814700
 3675.660                   2.445700
 3679.610                   1.411700
 3683.240                   1.412200
 3687.080                   0.747600
 3691.110                  -0.581900
 3694.770                  -0.655400
 3698.410                  -0.654900
 3701.800                   0.158300
 3705.280                   0.676000
 3708.920                   0.676400
 3712.600                   0.529100
 3716.450                  -0.209300
 3720.250                  -0.726100
 3723.880                  -0.725700
 3727.470                  -0.577400
 3730.740                   0.679100
 3734.370                   0.679600
 3737.940                   0.901700
 3741.640                   0.680500
 3745.500                  -0.058000
 3749.140                  -0.057500
 3753.040                  -0.943800
 3756.500                  -0.352200
 3760.070                  -0.130100
 3763.700                  -0.129600
 3767.410                  -0.350900
 3771.060                  -0.424300
 3774.700                  -0.423800
 3778.250                  -0.127800
 3781.890                  -0.127400
 3785.590                  -0.348600
 3789.220                  -0.348200
 3793.390                  -2.121000
 3797.020                  -2.120600
 3800.660                  -2.120200
 3804.140                  -1.602500
 3807.850                  -1.823700
 3811.610                  -2.266600
 3815.250                  -2.266200
 3818.910                  -2.339600
 3822.100                  -0.861400
 3825.740                  -0.860900
 3829.000                   0.395700
 3832.790                  -0.121100
 3836.600                  -0.711800
 3840.240                  -0.711300
 3844.030                  -1.228100
 3847.670                  -1.227700
 3851.060                  -0.414400
 3854.700                  -0.414000
 3858.220                  -0.044100
 3861.660                   0.621300
 3865.300                   0.621800
 3868.800                   1.065600
 3872.390                   1.213800
 3876.050                   1.140400
 3879.690                   1.140800
 3883.500                   0.550100
 3887.140                   0.550600
 3890.770                   0.551000
 3894.150                   1.438200
 3897.780                   1.438600
 3901.510                   1.143500
 3905.140                   1.143900
 3908.780                   1.144400
 3913.190                  -1.441300
 3916.820                  -1.440800
 3920.240                  -0.701500
 3923.850                  -0.627200
 3927.550                  -0.848400
 3931.190                  -0.847900
 3935.250                  -2.251400
 3938.880                  -2.250900
 3941.970                  -0.403200
 3945.600                  -0.402800
 3949.240                  -0.402300
 3952.960                  -0.697500
 3956.600                  -0.697000
 3960.240                  -0.696600
 3963.940                  -0.917800
 3967.620                  -1.065100
 3971.260                  -1.064700
 3974.910                  -1.138100
 3978.750                  -1.802700
 3982.380                  -1.802200
 3986.000                  -1.727900
 3989.610                  -1.653500
 3993.180                  -1.431400
 3996.820                  -1.431000
 4000.430                  -1.356600
 4003.650                   0.047700
 4007.290                   0.048100
 4010.660                   0.935300
 4013.740                   2.783000
 4017.380                   2.783400
 4021.020                   2.783900
 4024.810                   2.267100
 4028.690                   1.454700
 4032.830                  -0.244300
 4036.470                  -0.243800
 4040.100                  -0.243400
 4043.780                  -0.390700
 4047.420                  -0.390300
 4051.030                  -0.315900
 4054.320                   0.866700
 4057.860                   1.162700
 4061.500                   1.163200
 4065.160                   1.089800
 4068.900                   0.720800
 4072.540                   0.721200
 4076.490                  -0.312800
 4080.100                  -0.238400
 4083.670                  -0.016300
 4087.310                  -0.015900
 4090.940                  -0.015400
 4094.400                   0.576100
 4098.040                   0.576600
 4101.610                   0.798700
 4105.290                   0.651400
 4108.900                   0.725700
 4112.540                   0.726100
 4116.530                  -0.455600
 4120.120                  -0.307400
 4123.760                  -0.307000
 4127.390                  -0.306500
 4131.030                  -0.306100
 4134.640                  -0.231700
 4138.280                  -0.231300
 4141.670                   0.581900
 4145.180                   1.025700
 4148.840                   0.952300
 4152.470                   0.952700
 4156.350                   0.140400
 4160.030                  -0.006900
 4163.670                  -0.006500
 4167.520                  -0.744900
 4171.360                  -1.409500
 4175.100                  -1.778500
 4178.740                  -1.778000
 4182.380                  -1.777600
 4186.100                  -2.072700
 4189.740                  -2.072200
 4193.400                  -2.145700
 4197.030                  -2.145200
 4200.580                  -1.849200
 4204.220                  -1.848800
 4207.480                  -0.592200
 4210.980                  -0.148400
 4214.200                   1.255900
 4217.840                   1.256400
 4221.360                   1.626200
 4224.650                   2.808900
 4228.280                   2.809300
 4231.920                   2.809800
 4235.600                   2.662500
 4239.190                   2.810700
 4242.830                   2.811100
 4246.420                   2.959400
 4250.140                   2.664300
 4253.780                   2.664700
 4257.570                   2.148000
 4261.600                   0.818400
 4265.240                   0.818800
 4268.880                   0.819300
 4272.510                   0.819700
 4276.040                   1.189600
 4279.670                   1.190100
 4283.240                   1.412200
 4286.550                   2.521000
 4290.080                   2.890800
 4293.710                   2.891300
 4297.260                   3.187300
 4300.850                   3.335500
 4304.270                   4.074900
 4307.900                   4.075400
 4311.210                   5.184100
 4314.300                   7.031800
 4317.930                   7.032200
 4321.350                   7.771600
 4324.630                   8.954200
 4327.540                  11.393000
 4331.180                  11.393500
 4334.500                  12.428400
 4337.940                  13.093800
 4341.580                  13.094200
 4345.170                  13.242500
 4349.000                  12.577900
 4352.930                  11.617800
 4356.560                  11.618200
 4360.530                  10.510300
 4364.390                   9.772000
 4368.020                   9.772400
 4371.920                   8.886200
 4375.710                   8.369400
 4379.400                   8.222100
 4383.030                   8.222500
 4386.870                   7.558000
 4390.610                   7.189000
 4394.340                   6.893800
 4397.970                   6.894300
 4401.570                   7.042500
 4405.050                   7.560200
 4408.680                   7.560600
 4412.140                   8.152200
 4415.320                   9.704300
 4418.840                  10.074200
 4422.480                  10.074700
 4426.050                  10.296800
 4429.730                  10.149500
 4433.370                  10.149900
 4436.940                  10.372000
 4440.440                  10.815800
 4443.940                  11.259600
 4447.580                  11.260000
 4451.410                  10.595500
 4455.450                   9.265900
 4459.080                   9.266300
 4463.090                   8.010700
 4466.660                   8.232800
 4470.060                   9.046000
 4473.690                   9.046500
 4477.260                   9.268600
 4481.030                   8.825700
 4484.780                   8.456700
 4488.420                   8.457200
 4491.850                   9.122600
 4495.250                   9.935900
 4498.880                   9.936300
 4502.300                  10.675600
 4505.670                  11.562700
 4509.260                  11.711000
 4512.900                  11.711400
 4516.400                  12.155200
 4520.240                  11.490600
 4523.870                  11.491100
 4528.060                   9.644300
 4531.810                   9.275300
 4535.360                   9.571300
 4538.990                   9.571700
 4542.540                   9.867800
 4545.670                  11.567700
 4549.310                  11.568100
 4552.880                  11.790200
 4556.510                  11.790700
 4560.080                  12.012800
 4563.720                  12.013200
 4566.890                  13.565400
 4570.460                  13.787500
 4574.280                  13.196800
 4577.910                  13.197200
 4581.610                  12.976000
 4586.310                   9.429800
 4589.940                   9.430200
 4593.840                   8.544000
 4597.970                   6.918900
 4602.060                   5.367700
 4605.700                   5.368200
 4609.490                   4.851400
 4613.110                   4.925700
 4616.740                   4.926200
 4620.420                   4.778900
 4624.320                   3.892600
 4628.220                   3.006400
 4631.860                   3.006800
 4635.500                   3.007300
 4639.400                   2.121100
 4643.030                   2.121500
 4646.930                   1.235300
 4650.860                   0.275200
 4654.540                   0.127900
 4658.170                   0.128300
 4661.590                   0.867600
 4665.220                   0.868100
 4669.080                   0.129700
 4672.720                   0.130100
 4676.420                  -0.091100
 4680.010                   0.057100
 4683.650                   0.057600
 4687.150                   0.501300
 4690.440                   1.684000
 4694.010                   1.906100
 4697.640                   1.906600
 4701.210                   2.128700
 4704.890                   1.981300
 4708.530                   1.981800
 4712.500                   0.873900
 4716.240                   0.504900
 4719.990                   0.135900
 4723.620                   0.136400
 4727.260                   0.136800
 4730.660                   0.950000
 4734.290                   0.950500
 4737.910                   1.024800
 4741.610                   0.803600
 4745.310                   0.582400
 4748.950                   0.582800
 4752.600                   0.509400
 4756.810                  -1.411300
 4760.320                  -0.967500
 4763.950                  -0.967000
 4767.520                  -0.744900
 4771.010                  -0.227300
 4774.640                  -0.226800
 4778.280                  -0.226400
 4781.780                   0.217400
 4785.420                   0.217900
 4789.060                   0.218300
 4792.670                   0.292700
 4795.970                   1.401500
 4799.610                   1.401900
 4803.250                   1.402300
 4807.040                   0.885600
 4810.780                   0.516600
 4814.420                   0.517000
 4817.900                   1.034700
 4821.450                   1.330700
 4825.090                   1.331100
 4828.990                   0.444900
 4832.760                   0.002000
 4836.390                   0.002500
 4840.030                   0.002900
 4843.360                   1.037800
 4846.990                   1.038300
 4850.670                   0.890900
 4854.310                   0.891400
 4858.060                   0.522400
 4861.760                   0.301200
 4865.390                   0.301600
 4869.030                   0.302100
 4872.560                   0.672000
 4876.240                   0.524600
 4879.870                   0.525100
 4883.640                   0.082200
 4887.300                   0.008700
 4890.940                   0.009200
 4894.640                  -0.212000
 4897.920                   0.970600
 4901.450                   1.340500
 4905.080                   1.341000
 4908.760                   1.193700
 4912.600                   0.529100
 4916.240                   0.529500
 4920.000                   0.086700
 4924.010                  -1.169000
 4927.780                  -1.611900
 4931.420                  -1.611500
 4935.190                  -2.054300
 4938.650                  -1.462800
 4942.390                  -1.831800
 4946.030                  -1.831300
 4949.730                  -2.052500
 4953.520                  -2.569300
 4957.160                  -2.568900
 4960.750                  -2.420600
 4963.810                  -0.499100
 4967.450                  -0.498600
 4971.090                  -0.498200
 4974.970                  -1.310500
 4978.600                  -1.310100
 4982.240                  -1.309600
 4985.430                   0.168600
 4989.050                   0.242900
 4993.570                  -2.712200
 4997.200                  -2.711700
 5001.410                  -4.632400
 5005.050                  -4.631900
 5008.680                  -4.631500
 5013.510                  -8.621000
 5016.660                  -6.995000
 5017.430                   2.610900
 5021.070                   2.611400
 5022.880                   8.744700
 5024.150                  16.651300
 5027.130                  18.868400
 5030.770                  18.868800
 5034.380                  18.943100
 5037.530                  20.569100
 5041.170                  20.569600
 5046.570                  14.658900
 5052.230                   7.861600
 5056.110                   7.049200
 5059.750                   7.049700
 5065.740                  -0.856000
 5069.420                  -1.003300
 5073.060                  -1.002900
 5076.080                   1.066500
 5079.710                   1.066900
 5083.350                   1.067400
 5086.980                   1.067800
 5091.100                  -0.557300
 5094.760                  -0.630700
 5098.400                  -0.630300
 5101.880                  -0.112600
 5105.320                   0.552800
 5108.870                   0.848800
 5112.500                   0.849300
 5116.210                   0.628100
 5120.000                   0.111300
 5123.870                  -0.701000
 5127.510                  -0.700600
 5131.080                  -0.478500
 5134.520                   0.187000
 5138.160                   0.187400
 5141.510                   1.148400
 5144.880                   2.035600
 5148.540                   1.962100
 5152.170                   1.962600
 5156.120                   0.928500
 5159.800                   0.781200
 5163.430                   0.781700
 5167.000                   1.003800
 5170.660                   0.930300
 5174.540                   0.118000
 5178.180                   0.118500
 5182.230                  -1.285000
 5186.130                  -2.171200
 5189.770                  -2.170800
 5193.380                  -2.096400
 5196.580                  -0.618200
 5200.040                  -0.026600
 5203.670                  -0.026200
 5207.350                  -0.173500
 5211.120                  -0.616400
 5214.940                  -1.207100
 5218.570                  -1.206600
 5222.430                  -1.945100
 5226.040                  -1.870700
 5229.680                  -1.870300
 5233.290                  -1.795900
 5236.820                  -1.426100
 5240.390                  -1.203900
 5244.020                  -1.203500
 5247.570                  -0.907500
 5251.340                  -1.350400
 5254.980                  -1.349900
 5258.940                  -2.457800
 5262.580                  -2.457400
 5265.930                  -1.496400
 5269.570                  -1.495900
 5272.920                  -0.534900
 5276.490                  -0.312800
 5280.120                  -0.312300
 5283.100                   1.904800
 5286.950                   1.166300
 5290.770                   0.575700
 5294.400                   0.576100
 5298.040                   0.576600
 5301.320                   1.759200
 5304.780                   2.350800
 5308.420                   2.351200
 5312.280                   1.612800
 5316.090                   1.022100
 5319.720                   1.022600
 5323.380                   0.949100
 5327.020                   0.949600
 5330.830                   0.358900
 5334.470                   0.359400
 5338.850                  -2.152400
 5342.800                  -3.186400
 5346.430                  -3.186000
 5350.050                  -3.111600
 5353.600                  -2.815600
 5356.730                  -1.115700
 5360.360                  -1.115300
 5363.980                  -1.040900
 5367.610                  -1.040500
 5371.250                  -1.040000
 5374.580                  -0.005100
 5378.010                   0.660300
 5381.690                   0.513000
 5385.330                   0.513400
 5389.390                  -0.890000
 5393.020                  -0.889600
 5396.350                   0.145300
 5399.990                   0.145800
 5403.670                  -0.001600
 5407.550                  -0.813900
 5411.180                  -0.813400
 5415.020                  -1.478000
 5418.630                  -1.403700
 5422.220                  -1.255400
 5425.860                  -1.255000
 5429.250                  -0.441800
 5432.840                  -0.293500
 5436.480                  -0.293100
 5440.210                  -0.588200
 5444.060                  -1.326600
 5447.680                  -1.252300
 5451.310                  -1.251800
 5454.770                  -0.660300
 5457.880                   1.113500
 5461.520                   1.113900
 5465.150                   1.114400
 5468.770                   1.188700
 5472.980                  -0.731900
 5476.610                  -0.731500
 5480.180                  -0.509400
 5483.840                  -0.582800
 5487.830                  -1.764600
 5491.460                  -1.764100
 5495.100                  -1.763700
 5498.230                  -0.063800
 5501.870                  -0.063400
 5505.500                  -0.062900
 5509.650                  -1.761900
 5513.350                  -1.983100
 5516.980                  -1.982700
 5520.420                  -1.317200
 5523.570                   0.308800
 5527.210                   0.309200
 5530.490                   1.491900
 5534.150                   1.418400
 5537.770                   1.492800
 5541.400                   1.493200
 5545.520                  -0.131900
 5549.050                   0.238000
 5552.690                   0.238500
 5556.210                   0.608400
 5559.910                   0.387100
 5563.730                  -0.203500
 5567.360                  -0.203100
 5571.370                  -1.458700
 5575.010                  -1.458300
 5578.510                  -1.014500
 5582.150                  -1.014100
 5585.630                  -0.496400
 5589.050                   0.242900
 5592.680                   0.243400
 5596.320                   0.243800
 5599.890                   0.466000
 5603.550                   0.392500
 5607.190                   0.393000
 5610.840                   0.319500
 5614.440                   0.467700
 5618.070                   0.468200
 5621.580                   0.912000
 5625.230                   0.838500
 5629.250                  -0.417100
 5632.880                  -0.416700
 5636.320                   0.248800
 5639.850                   0.618700
 5643.480                   0.619100
 5647.120                   0.619600
 5651.170                  -0.783900
 5654.810                  -0.783400
 5658.450                  -0.783000
 5662.610                  -2.555900
 5666.270                  -2.629300
 5669.620                  -1.668300
 5673.250                  -1.667900
 5676.520                  -0.411300
 5679.340                   2.323000
 5682.970                   2.323400
 5686.610                   2.324000
 5690.510                   1.437700
 5694.570                   0.034300
 5698.200                   0.034700
 5702.430                  -1.959800
 5706.070                  -1.959400
 5709.700                  -1.958900
 5713.160                  -1.367400
 5716.600                  -0.701900
 5719.970                   0.185200
 5723.610                   0.185600
 5727.180                   0.407700
 5730.680                   0.851500
 5734.320                   0.852000
 5737.910                   1.000200
 5741.370                   1.591700
 5745.010                   1.592200
 5748.650                   1.592700
 5752.370                   1.297500
 5755.940                   1.519700
 5759.580                   1.520100
 5763.210                   1.520600
 5767.050                   0.856000
 5770.770                   0.560900
