#Wavelength     Flux    Sky Spectrum 
#[Angstrom]   [Counts]     [Counts]
4579.10    19.415569    22.375893
4580.31    21.506189    20.011007
4581.53    18.671320    22.115953
4582.74    14.901939    22.814848
4583.96    13.690172    26.123646
4585.17    25.351507    18.419939
4586.38    21.985670    20.025908
4587.60    17.623816    24.721279
4588.81    24.911715    19.738607
4590.03    26.827129    14.052968
4591.24    28.593784    17.691175
4592.46    19.432499    18.203030
4593.67    19.763916    12.741354
4594.89    29.875992    17.120499
4596.10    18.868784    33.717514
4597.32    21.472324    21.029568
4598.53    33.752312    13.266726
4599.74    35.234638    18.762653
4600.96    26.145334    17.224722
4602.17    24.795044    10.301316
4603.39    26.329727    13.423323
4604.60    23.547836    18.848499
4605.82    20.418530    15.259075
4607.03    19.742373    11.570616
4608.25    18.608881    20.598579
4609.46    25.821766    16.232870
4610.68    27.645512    14.512331
4611.89    21.161583    17.766964
4613.10    21.196882    19.587566
4614.32    31.709166    21.511723
4615.53    26.690891    10.742083
4616.75    27.241816    13.926298
4617.96    26.684153    18.378511
4619.18    24.208874    10.952754
4620.39    33.128464    11.694421
4621.61    19.242554    18.948107
4622.82    19.063705    18.384773
4624.04    27.737091    18.087763
4625.25    24.216021    19.355574
4626.46    17.999863    15.000154
4627.68    23.265165    19.758995
4628.89    20.881136    21.898937
4630.11    17.319931    19.532858
4631.32    27.927666    13.746174
4632.54    39.925938    11.436391
4633.75    28.338018    23.198950
4634.97    29.723953    18.222038
4636.18    27.181656    15.717443
4637.40    26.597225    19.513277
4638.61    39.197216    16.406742
4639.82    38.690804    12.314560
4641.04    28.835274    11.248631
4642.25    23.915314    20.235418
4643.47    35.484299    22.332815
4644.68    42.507984    15.177286
4645.90    24.054735    15.997683
4647.11    18.288895    15.074801
4648.33    22.949745    16.772354
4649.54    22.342503    21.945183
4650.76    22.603712    19.329578
4651.97    27.922474     9.589774
4653.18    25.144667    13.775754
4654.40    39.696335    22.758640
4655.61    33.382160    21.410536
4656.83    26.301630    11.895863
4658.04    35.523830    11.702534
4659.26    30.086067    23.879555
4660.47    33.028378    20.411720
4661.69    46.677582    12.126062
4662.90    32.940880    19.952469
4664.12    17.298800    27.714266
4665.33    30.515347    18.194763
4666.54    27.488331    15.805593
4667.76    41.249210    19.056555
4668.97    36.816971    25.126265
4670.19    25.996122    23.552912
4671.40    26.286690    20.949875
4672.62    22.010113    28.003754
4673.83    29.521355    20.711374
4675.05    33.218323    16.736433
4676.26    44.283646    13.332197
4677.47    47.188919    11.414950
4678.69    31.416214    14.060503
4679.90    27.271622    14.573695
4681.12    20.454327    24.263432
4682.33    14.493924    23.623428
4683.55    28.062096    18.005362
4684.76    41.308720    14.649338
4685.98    31.533707    11.022238
4687.19    35.797668    13.931318
4688.41    51.022930    11.247267
4689.62    33.346249    15.125799
4690.83    24.108297    24.673771
4692.05    38.341148    26.279640
4693.26    26.979158    19.986992
4694.48    28.007202    19.990578
4695.69    23.924919    25.338646
4696.91    38.986290    19.377808
4698.12    47.086796    14.802663
4699.34    28.359705    21.463747
4700.55    33.343140    17.410133
4701.77    41.463467    11.662168
4702.98    27.399355    17.693256
4704.19    29.556721    17.441050
4705.41    41.103558    15.553060
4706.62    30.113829    23.142099
4707.84    28.842777    17.535717
4709.05    29.244413    17.528957
4710.27    27.752274    22.382236
4711.48    21.077761    24.036755
4712.70    27.025341    20.885597
4713.91    45.008396    16.816395
4715.13    32.230282    15.763675
4716.34    48.138969    18.103399
4717.55    49.820606    14.950146
4718.77    32.667316    11.491854
4719.98    29.813101    16.968025
4721.20    36.051205    22.973301
4722.41    35.048176    15.861900
4723.63    37.171562    17.672104
4724.84    33.139751    21.185434
4726.06    36.093983    18.543810
4727.27    39.909508    15.818761
4728.49    23.038088    16.013477
4729.70    38.954975    14.783279
4730.91    45.556107    17.907516
4732.13    40.038330    17.975151
4733.34    39.823929    15.830902
4734.56    41.855789    18.606258
4735.77    36.427467    23.666132
4736.99    30.520536    28.416729
4738.20    37.091324    22.124577
4739.42    31.376127    19.431232
4740.63    23.786097    19.980757
4741.85    32.256634    17.391584
4743.06    26.447254    25.489939
4744.27    28.465242    25.522572
4745.49    42.846760    19.998228
4746.70    37.680820    17.473997
4747.92    21.844822    20.211876
4749.13    26.627384    22.985878
4750.35    34.550102    20.292831
4751.56    48.045624    19.266663
4752.78    40.127270    17.630253
4753.99    24.150888    17.755287
4755.21    21.062988    24.414063
4756.42    26.581755    27.551249
4757.63    35.758564    14.670606
4758.85    31.406969    21.118065
4760.06    38.332508    21.815294
4761.28    53.701683    17.812311
4762.49    49.069710    20.033775
4763.71    31.911331    17.968031
4764.92    43.715691    17.542191
4766.14    47.050308    12.168782
4767.35    37.755943    13.071465
4768.57    31.808008    16.453083
4769.78    38.581749    16.319283
4770.99    52.985779    18.002018
4772.21    52.550518    14.821310
4773.42    29.221672    20.437300
4774.64    35.238239    22.951307
4775.85    52.164204    22.944977
4777.07    46.563869    23.009659
4778.28    44.391785    15.070180
4779.50    27.681702    19.267168
4780.71    39.191017    17.804386
4781.92    28.860447    23.569403
4783.14    15.045393    27.513336
4784.35    31.271109    19.871807
4785.57    16.804987    26.589731
4786.78    17.810139    26.266144
4788.00    30.394058    15.741756
4789.21    43.547752    12.196089
4790.43    40.954514    15.469392
4791.64    25.325302    17.635365
4792.86    33.282955    24.843910
4794.07    46.783295    20.766775
4795.28    33.427864    23.100761
4796.50    35.124004    16.700172
4797.71    42.753628    10.945945
4798.93    20.527876    25.379911
4800.14    32.850960    20.582233
4801.36    38.118889    22.923677
4802.57    34.673435    21.550726
4803.79    23.576437    19.540512
4805.00    20.487112    23.663401
4806.22    37.122093    23.988823
4807.43    31.296690    22.659056
4808.64    38.338402    18.322433
4809.86    24.968819    21.027800
4811.07    27.495991    23.580904
4812.29    53.489597    19.510918
4813.50    37.130028    19.015610
4814.72    47.133759    18.442533
4815.93    27.445162    24.502542
4817.15    18.498356    37.936653
4818.36    25.179796    41.469376
4819.58    22.344267    26.747890
4820.79    42.883198    15.180737
4822.00    42.328972    21.363537
4823.22    26.843388    32.428310
4824.43    35.082638    27.990511
4825.65    45.413715    19.409811
4826.86    30.673903    21.898462
4828.08    39.119728    17.115776
4829.29    35.659245    23.065197
4830.51    27.571211    32.650745
4831.72    31.381432    26.532288
4832.94    35.252995    20.281567
4834.15    30.041735    31.003191
4835.36    41.067440    19.178516
4836.58    43.386269    17.954159
4837.79    37.585629    28.101454
4839.01    36.735615    31.932756
4840.22    40.365807    25.697729
4841.44    41.824097    19.152679
4842.65    46.447594    20.548567
4843.87    44.807064    25.940302
4845.08    39.381664    22.517414
4846.30    36.455151    22.383839
4847.51    39.733215    29.622782
4848.72    47.307251    17.487232
4849.94    36.634785    26.153517
4851.15    37.768715    29.308960
4852.37    37.799885    22.842911
4853.58    28.400869    25.601112
4854.80    32.006390    30.984989
4856.01    31.957193    20.530453
4857.23    50.165291    13.351095
4858.44    52.476566    17.524664
4859.66    42.761883    20.933403
4860.87    44.885544    16.334505
4862.08    43.485840    13.126131
4863.30    54.138077    13.635530
4864.51    41.494572    19.890007
4865.73    40.298542    20.879831
4866.94    43.875858    19.996838
4868.16    23.075771    26.079468
4869.37    47.487785    21.521179
4870.59    46.260117    14.933304
4871.80    27.848406    23.369204
4873.02    28.434155    29.565969
4874.23    39.700985    22.275066
4875.44    38.775856    22.873224
4876.66    48.151115    22.970673
4877.87    47.558029    18.170492
4879.09    42.530128    18.980865
4880.30    39.458923    25.280046
4881.52    31.693115    28.163200
4882.73    34.505863    29.879705
4883.95    62.063950    20.336346
4885.16    55.851704    21.359619
4886.37    42.964424    28.102156
4887.59    49.521931    29.918125
4888.80    30.246895    33.651642
4890.02    45.920021    16.127317
4891.23    44.110252    24.082703
4892.45    37.093456    29.991608
4893.66    42.070274    20.423674
4894.88    37.965508    28.226992
4896.09    42.362633    32.373985
4897.31    49.255116    27.225441
4898.52    43.893475    21.037161
4899.73    37.581917    25.079391
4900.95    34.601307    34.512310
4902.16    23.160782    30.962503
4903.38    48.898613    21.624962
4904.59    61.672218    16.555437
4905.81    53.892319    21.341883
4907.02    53.971912    27.216084
4908.24    56.227192    24.059168
4909.45    41.728867    24.279123
4910.67    46.246223    20.487209
4911.88    46.340500    17.119017
4913.09    41.327385    20.543629
4914.31    49.936256    25.044615
4915.52    35.471844    24.376003
4916.74    23.100866    30.992031
4917.95    35.253288    23.507910
4919.17    39.936535    19.453852
4920.38    28.290981    29.990778
4921.60    41.566978    19.751947
4922.81    30.908340    22.670721
4924.03    30.332121    25.317066
4925.24    36.255123    24.013077
4926.45    40.816483    24.989796
4927.67    59.715759    25.749146
4928.88    49.882515    31.858097
4930.10    50.247627    26.077406
4931.31    52.784634    19.607649
4932.53    56.687344    19.591417
4933.74    73.003029    17.000082
4934.96    55.839638    19.563259
4936.17    58.163395    18.978071
4937.39    51.264809    18.081175
4938.60    44.162601    21.170761
4939.81    58.630756    27.346901
4941.03    29.784485    33.328873
4942.24    33.887138    25.631590
4943.46    51.979218    21.781206
4944.67    53.027409    21.999207
4945.89    51.299362    19.235886
4947.10    57.125683    26.370972
4948.32    47.880974    24.342876
4949.53    36.359535    20.608778
4950.75    40.924343    26.058142
4951.96    55.212227    29.270281
4953.17    60.534515    17.593483
4954.39    64.102692    22.970600
4955.60    60.483116    25.611170
4956.82    54.290821    22.782934
4958.03    50.147797    23.933252
4959.25    43.354103    22.797968
4960.46    45.996563    26.124266
4961.68    59.877689    17.234543
4962.89    67.952721    19.116234
4964.11    58.860184    31.822937
4965.32    42.490906    21.867027
4966.53    31.892239    36.698837
4967.75    38.849594    31.748329
4968.96    55.744785    19.397396
4970.18    59.757393    25.877102
4971.39    45.677750    26.263643
4972.61    48.615742    22.816513
4973.82    51.752766    22.380136
4975.04    54.115761    30.515583
4976.25    57.694607    38.102833
4977.47    50.602932    30.909508
4978.68    47.993683    23.451988
4979.89    47.446030    20.957481
4981.11    44.612938    23.705048
4982.32    44.653942    28.568369
4983.54    53.076645    30.840836
4984.75    59.506077    30.917643
4985.97    61.774918    22.994015
4987.18    42.728172    27.217169
4988.40    24.955597    41.377731
4989.61    49.537746    31.483679
4990.82    41.518890    25.398970
4992.04    54.684242    24.409861
4993.25    63.643250    24.062204
4994.47    37.710686    26.435099
4995.68    44.349121    30.100597
4996.90    48.756260    25.459499
4998.11    54.986069    22.031288
4999.33    55.692188    27.827057
5000.54    51.724064    31.626860
5001.76    72.804649    18.941082
5002.97    67.167297    16.804892
5004.18    50.514465    24.181805
5005.40    55.046791    26.570576
5006.61    69.033813    26.143000
5007.83    58.384129    36.347363
5009.04    56.187637    30.102488
5010.26    50.750481    28.092665
5011.47    43.394344    33.881916
5012.69    50.027740    28.073696
5013.90    42.149872    30.643608
5015.12    52.568283    27.206036
5016.33    61.013485    21.356810
5017.54    56.273384    24.053305
5018.76    59.712368    29.881990
5019.97    43.228706    25.839161
5021.19    51.214039    18.942945
5022.40    53.656723    19.447660
5023.62    37.561245    25.454262
5024.83    62.211319    25.635880
5026.05    60.125092    21.009092
5027.26    51.546539    24.923096
5028.48    51.070797    28.167267
5029.69    44.861145    21.956928
5030.90    42.779343    25.503929
5032.12    44.664429    23.092943
5033.33    46.995564    21.779268
5034.55    49.828674    28.653664
5035.76    53.851593    32.216049
5036.98    52.707069    24.798622
5038.19    41.498962    29.054819
5039.41    36.481823    30.991352
5040.62    48.987850    18.781507
5041.84    64.545479    15.453030
5043.05    67.043114    21.996815
5044.26    62.100838    26.893688
5045.48    62.034756    28.768227
5046.69    65.992676    29.963556
5047.91    62.616600    24.874989
5049.12    69.307610    24.641329
5050.34    65.684273    23.493776
5051.55    48.879017    24.400711
5052.77    46.695759    34.709980
5053.98    51.014141    29.304214
5055.20    55.676754    28.625896
5056.41    52.359665    31.917202
5057.62    44.922787    27.802511
5058.84    52.722397    25.837772
5060.05    68.101044    20.037298
5061.27    73.588905    18.787672
5062.48    74.064247    20.748648
5063.70    79.226334    19.647816
5064.91    67.781120    29.015619
5066.13    63.519379    23.544294
5067.34    66.087860    17.713081
5068.56    59.089844    25.198185
5069.77    47.205139    23.310709
5070.98    48.401890    33.423054
5072.20    57.639004    36.615154
5073.41    58.877525    29.068394
5074.63    54.550072    27.359493
5075.84    68.640381    19.447151
5077.06    59.432953    25.307209
5078.27    55.140350    29.761423
5079.49    71.970978    21.908768
5080.70    56.329689    28.474752
5081.91    67.938683    30.717415
5083.13    75.332718    30.490738
5084.34    57.954250    32.035381
5085.56    54.118607    29.454163
5086.77    68.523941    25.385078
5087.99    64.994026    30.747097
5089.20    61.768616    32.210705
5090.42    71.831543    23.976450
5091.63    47.861015    30.590334
5092.85    41.126904    29.454576
5094.06    63.925690    22.756290
5095.27    79.942345    25.045031
5096.49    68.544830    32.887367
5097.70    77.376022    26.255922
5098.92    75.853081    20.297337
5100.13    69.526230    19.219154
5101.35    78.428719    17.733051
5102.56    52.759262    28.910498
5103.78    50.834232    31.883070
5104.99    72.848518    28.441389
5106.21    81.042763    27.837952
5107.42    75.568169    23.890961
5108.63    64.930817    28.607655
5109.85    63.034550    29.452820
5111.06    67.065742    25.071381
5112.28    62.782726    31.068441
5113.49    60.230461    33.351555
5114.71    66.725105    25.823616
5115.92    70.224342    23.302372
5117.14    64.003159    33.655777
5118.35    72.364052    31.912245
5119.57    82.056175    28.726500
5120.78    75.486214    26.958309
5121.99    64.023903    25.053438
5123.21    74.223091    30.691654
5124.42    64.732155    32.312466
5125.64    54.043030    32.856785
5126.85    65.484436    33.689499
5128.07    77.503914    26.022224
5129.28    81.313248    17.294863
5130.50    83.377197    15.080710
5131.71    81.732353    21.735128
5132.93    66.711868    31.335705
5134.14    49.571583    31.350842
5135.35    65.423462    29.877832
5136.57    83.967064    36.538597
5137.78    66.810257    45.846584
5139.00    68.654228    41.262539
5140.21    74.160149    38.626991
5141.43    80.247543    35.917507
5142.64    89.012451    29.001682
5143.86    77.356796    34.398582
5145.07    68.704964    30.154224
5146.29    62.949017    29.586145
5147.50    54.858910    40.140694
5148.71    60.652000    34.540344
5149.93    78.913544    33.611149
5151.14    75.107658    31.555487
5152.36    55.517170    26.083607
5153.57    68.739120    32.824661
5154.79    82.588928    32.948071
5156.00    87.728836    27.912012
5157.22    80.658958    25.955589
5158.43    63.251934    26.825607
5159.65    77.529442    27.414043
5160.86    87.601883    29.164953
5162.07    73.019165    29.628290
5163.29    62.789486    26.188837
5164.50    71.744995    27.458408
5165.72    72.104599    26.647772
5166.93    68.066162    22.234726
5168.15    81.728142    20.154942
5169.36    85.517776    19.659985
5170.58    85.370621    24.824804
5171.79    82.223953    32.437717
5173.01    74.934875    35.828354
5174.22    82.703148    36.073715
5175.43    81.580353    28.666273
5176.65    72.803055    28.142567
5177.86    72.187851    39.829212
5179.08    66.869041    31.657576
5180.29    69.089874    28.669384
5181.51    76.285774    29.774706
5182.72    72.678528    22.117849
5183.94    57.977005    27.261963
5185.15    57.774437    31.317362
5186.36    60.799328    35.202332
5187.58    54.774132    45.625927
5188.79    68.416924    47.255024
5190.01    64.284950    39.155067
5191.22    61.427608    31.799585
5192.44    83.447205    30.146585
5193.65    76.075989    27.387405
5194.87    48.351776    41.408180
5196.08    49.667374    53.432251
5197.30    81.473038    45.256699
5198.51    65.901932    46.234837
5199.72    54.833813    40.380974
5200.94    71.999779    30.252182
5202.15    86.068184    29.040310
5203.37    71.553787    27.980227
5204.58    58.681786    33.395939
5205.80    69.063339    36.171780
5207.01    86.731903    30.058765
5208.23    74.534317    34.942303
5209.44    54.687561    32.051704
5210.66    61.596794    25.916462
5211.87    87.342354    32.378658
5213.08    74.966354    36.516479
5214.30    73.164726    40.909805
5215.51    84.257278    42.410950
5216.73    75.563515    38.031002
5217.94    78.255440    41.710377
5219.16    74.331337    37.672024
5220.37    70.379593    32.627922
5221.59    86.326309    41.515724
5222.80    86.926521    36.872494
5224.02    74.270126    35.687286
5225.23    76.960564    41.129345
5226.44    100.726204    36.710350
5227.66    87.631302    36.130730
5228.87    68.376762    36.840637
5230.09    76.037560    34.722477
5231.30    93.329575    33.136879
5232.52    90.660202    33.054718
5233.73    83.763710    32.636730
5234.95    87.335030    33.229099
5236.16    89.394821    37.430489
5237.38    85.506668    37.443451
5238.59    76.037605    42.642437
5239.80    78.558144    50.993698
5241.02    107.493317    42.603111
5242.23    97.550323    39.898167
5243.45    76.625191    41.899757
5244.66    83.901672    39.987682
5245.88    79.498642    41.969490
5247.09    85.050842    35.172375
5248.31    87.692436    30.834087
5249.52    76.520309    37.164925
5250.74    95.494659    27.341709
5251.95    82.595490    30.717041
5253.16    54.649708    44.289490
5254.38    73.491280    42.279682
5255.59    86.612213    44.004665
5256.81    91.873352    40.389416
5258.02    93.411140    29.988321
5259.24    83.903152    30.418196
5260.45    80.774323    46.174927
5261.67    92.735466    47.152184
5262.88    103.958961    33.865685
5264.10    91.044212    42.843384
5265.31    79.513092    41.300240
5266.52    84.538948    31.926716
5267.74    90.232445    31.938486
5268.95    68.764420    35.098766
5270.17    58.463642    40.745464
5271.38    69.420425    44.164459
5272.60    82.712685    41.423893
5273.81    92.019447    38.710629
5275.03    97.124580    40.904774
5276.24    90.523071    44.136059
5277.46    76.268066    41.163658
5278.67    96.679985    34.693409
5279.88    118.530380    28.859861
5281.10    109.707077    31.718830
5282.31    90.087570    45.377514
5283.53    94.002388    41.941620
5284.74    95.843094    36.432091
5285.96    74.606285    44.794979
5287.17    68.902473    44.793274
5288.39    95.364807    36.779305
5289.60    101.812851    36.850872
5290.81    64.601166    49.864624
5292.03    84.596306    50.013039
5293.24    97.600616    42.052242
5294.46    81.390182    33.923244
5295.67    85.457710    28.822201
5296.89    60.161064    40.242985
5298.10    56.332504    46.472652
5299.32    94.264900    38.968300
5300.53    97.370285    41.681210
5301.75    90.916481    38.118374
5302.96    85.883881    38.299133
5304.17    79.700218    52.209755
5305.39    91.298882    49.665085
5306.60    104.001259    41.524288
5307.82    97.473526    38.796547
5309.03    79.220764    40.375778
5310.25    93.736252    50.213585
5311.46    99.149666    52.632832
5312.68    78.849182    43.891922
5313.89    86.544540    41.787804
5315.11    92.329826    37.626877
5316.32    80.874893    39.225445
5317.53    68.273064    51.296951
5318.75    72.672462    50.710297
5319.96    60.618496    56.007420
5321.18    58.901936    58.399017
5322.39    109.194572    35.557541
5323.61    103.268349    35.699692
5324.82    77.352859    48.291504
5326.04    84.901756    47.075829
5327.25    89.496048    38.856876
5328.47    95.819008    41.810860
5329.68    107.943306    45.050213
5330.89    116.176094    34.263733
5332.11    106.505020    33.412209
5333.32    86.450592    46.041439
5334.54    70.110558    60.875328
5335.75    68.335442    62.743214
5336.97    84.936577    44.455414
5338.18    75.293877    40.474152
5339.40    40.342648    58.752876
5340.61    68.068085    44.271446
5341.83    87.014870    35.362713
5343.04    71.918915    49.574467
5344.25    65.250389    60.789143
5345.47    58.287708    55.420105
5346.68    57.365108    56.149334
5347.90    65.964920    64.022789
5349.11    73.007919    45.521683
5350.33    86.034348    34.518490
5351.54    97.112373    44.003410
5352.76    92.777267    56.151421
5353.97    80.876762    54.057426
5355.19    72.205193    45.640091
5356.40    72.199013    46.466370
5357.61    81.180954    57.869431
5358.83    101.164841    48.204205
5360.04    106.836205    40.493351
5361.26    89.966721    56.094398
5362.47    93.862366    51.018005
5363.69    90.963921    46.107502
5364.90    82.563965    49.902733
5366.12    100.563164    44.957565
5367.33    99.571663    51.366238
5368.55    90.181252    56.350609
5369.76    97.263733    47.539051
5370.97    102.958626    47.397423
5372.19    104.644508    52.517551
5373.40    109.007271    49.790222
5374.62    117.520226    37.907436
5375.83    112.345345    43.449333
5377.05    98.659973    51.826046
5378.26    91.106506    45.517517
5379.48    91.956734    40.771965
5380.69    83.013412    49.977398
5381.91    78.395096    57.543598
5383.12    97.618355    45.834057
5384.33    93.266327    46.926029
5385.55    87.514313    48.135296
5386.76    100.630524    37.341606
5387.98    97.335266    39.056187
5389.19    89.635475    51.375217
5390.41    87.960403    59.137299
5391.62    88.091759    54.102470
5392.84    87.809502    52.980606
5394.05    95.028854    49.271584
5395.26    104.978798    40.189236
5396.48    95.729050    43.835945
5397.69    86.950783    52.226280
5398.91    91.207474    52.062115
5400.12    95.165649    43.913391
5401.34    72.802635    52.499302
5402.55    72.077248    59.939709
5403.77    108.536942    48.886917
5404.98    108.845535    38.883442
5406.20    104.510849    40.690800
5407.41    112.788498    48.779758
5408.62    113.282257    51.150593
5409.84    108.184738    50.004551
5411.05    114.316132    48.721962
5412.27    125.513008    47.282764
5413.48    103.723969    43.968559
5414.70    85.704315    49.559433
5415.91    87.155502    55.774067
5417.13    88.113487    44.746536
5418.34    98.106758    37.321644
5419.56    99.556610    42.577202
5420.77    88.541817    52.335434
5421.98    104.510788    53.236073
5423.20    95.002510    57.431110
5424.41    71.323433    60.595703
5425.63    105.353806    44.707993
5426.84    115.408836    38.777042
5428.06    96.555214    43.935692
5429.27    94.720039    42.960388
5430.49    105.329979    35.958675
5431.70    115.220375    35.584797
5432.92    120.021805    44.034550
5434.13    122.055733    49.175713
5435.34    104.811020    54.487919
5436.56    86.880638    59.628315
5437.77    92.734123    60.351284
5438.99    92.759239    57.853027
5440.20    98.812393    53.118427
5441.42    111.160538    49.955978
5442.63    94.323227    53.640892
5443.85    88.200836    54.300362
5445.06    98.520172    53.302444
5446.28    96.065109    57.949471
5447.49    101.683182    53.004723
5448.70    112.204803    44.299896
5449.92    111.243561    45.154335
5451.13    100.197281    53.074284
5452.35    115.477020    50.361412
5453.56    134.586700    45.270309
5454.78    96.327286    64.012009
5455.99    80.812729    76.271065
5457.21    109.138298    91.640472
5458.42    138.849243    130.407547
5459.64    139.836456    155.638367
5460.85    119.800980    159.391647
5462.06    112.242523    141.659531
5463.28    140.820129    100.077271
5464.49    131.889343    79.172470
5465.71    96.166664    75.609726
5466.92    106.149864    57.548367
5468.14    117.716919    66.905525
5469.35    105.215622    83.850418
5470.57    89.115593    76.503952
5471.78    113.321434    69.078415
5473.00    123.598824    60.326733
5474.21    102.849007    49.923874
5475.42    105.168839    49.940468
5476.64    110.980927    59.160988
5477.85    103.988472    63.508598
5479.07    93.172829    59.095673
5480.28    102.806061    76.422554
5481.50    131.071823    77.211288
5482.71    144.677994    49.045803
5483.93    105.715027    60.897865
5485.14    88.037735    74.563385
5486.36    103.109123    67.672279
5487.57    91.041992    64.099846
5488.78    103.848282    51.297386
5490.00    134.672226    46.867069
5491.21    140.459290    63.792999
5492.43    129.573532    55.649189
5493.64    115.264595    52.274685
5494.86    108.891068    69.589508
5496.07    114.942795    61.273945
5497.29    112.078362    57.406277
5498.50    106.386337    63.911026
5499.71    119.539917    56.348507
5500.93    116.492653    63.818390
5502.14    98.183182    71.011299
5503.36    87.791252    56.780510
5504.57    87.851547    58.616375
5505.79    95.400764    71.234962
5507.00    105.475815    74.309532
5508.22    112.321625    64.137665
5509.43    111.419777    62.930523
5510.65    106.738235    70.240654
5511.86    106.910095    65.931618
5513.07    111.043999    58.253384
5514.29    117.701248    59.676155
5515.50    123.017029    69.315056
5516.72    118.428230    65.310020
5517.93    110.519951    56.718479
5519.15    107.947159    55.018044
5520.36    112.988876    55.623947
5521.58    130.744644    62.498932
5522.79    148.696045    66.673927
5524.01    144.393539    56.263969
5525.22    123.329773    56.542133
5526.43    115.450470    62.143238
5527.65    131.034668    61.249794
5528.86    119.997757    77.028275
5530.08    98.261604    80.848709
5531.29    104.580093    57.756748
5532.51    144.688171    46.822792
5533.72    151.805740    57.786861
5534.94    125.238701    74.504242
5536.15    127.323975    75.050980
5537.37    124.200386    70.573730
5538.58    112.864319    74.905052
5539.79    113.572929    85.256950
5541.01    112.690094    74.822975
5542.22    108.984108    72.379593
5543.44    108.644394    93.449806
5544.65    114.061218    92.583061
5545.87    120.667427    79.510246
5547.08    122.988541    70.929581
5548.30    119.532967    67.239578
5549.51    116.999084    71.711121
5550.73    112.924858    81.312317
5551.94    106.982170    85.715248
5553.15    122.643524    74.221138
5554.37    126.015823    67.960724
5555.58    97.799683    81.801346
5556.80    99.964127    88.749947
5558.01    115.768692    89.160965
5559.23    125.352562    87.262794
5560.44    140.592453    80.532349
5561.66    120.955177    90.564407
5562.87    82.144867    108.726402
5564.09    81.459961    105.547249
5565.30    93.588097    96.449860
5566.51    112.108803    84.981804
5567.73    134.907288    72.858910
5568.94    124.171883    84.238884
5570.16    113.376678    100.446457
5571.37    110.730453    103.635437
5572.59    61.939568    147.009186
5573.80    109.915558    467.850189
5575.02    189.775177    1179.601562
5576.23    69.626045    2060.768799
5577.45    85.763107    2452.422119
5578.66    205.150101    2158.097412
5579.87    137.741226    1496.407959
5581.09    56.994732    867.567383
5582.30    67.455643    430.487030
5583.52    128.914963    185.020660
5584.73    122.569878    112.734039
5585.95    94.496010    102.729317
5587.16    101.120468    83.691582
5588.38    109.548607    87.362572
5589.59    119.624741    92.305916
5590.80    126.966614    86.824745
5592.02    115.669250    85.877594
5593.23    93.321213    89.342400
5594.45    89.160355    90.753990
5595.66    113.290642    88.333580
5596.88    106.548073    94.416801
5598.09    114.377274    93.217438
5599.31    158.149475    76.702179
5600.52    121.494545    77.115921
5601.74    82.330223    85.560097
5602.95    95.579277    94.030510
5604.16    86.912727    113.822052
5605.38    88.719627    118.362030
5606.59    110.820869    104.370178
5607.81    121.424202    94.672668
5609.02    144.587112    80.258621
5610.24    150.586517    75.357170
5611.45    103.944153    97.202789
5612.67    75.742226    114.467865
5613.88    95.924988    108.990990
5615.10    137.633636    87.960976
5616.31    142.976242    78.424591
5617.52    136.780167    75.644882
5618.74    137.632065    72.935638
5619.95    118.551376    79.517906
5621.17    112.122147    98.733810
5622.38    123.254295    108.633347
5623.60    118.802032    86.954407
5624.81    103.236809    88.989349
5626.03    96.523560    105.602135
5627.24    109.726311    92.119949
5628.46    120.369904    74.679466
5629.67    130.615723    65.136436
5630.88    148.079926    61.805935
5632.10    157.096237    65.224686
5633.31    142.228226    68.754967
5634.53    116.964478    73.080177
5635.74    121.396271    87.885338
5636.96    129.579956    91.723976
5638.17    123.862915    79.786507
5639.39    119.012108    72.477234
5640.60    124.681793    73.677582
5641.82    127.063171    81.107658
5643.03    112.050682    89.065681
5644.24    112.046501    88.182610
5645.46    127.550903    84.895920
5646.67    133.515686    89.312561
5647.89    112.183556    96.724266
5649.10    103.146149    96.328133
5650.32    126.447067    89.235832
5651.53    136.808121    92.208076
5652.75    134.903290    87.191933
5653.96    137.789581    72.183998
5655.18    147.755203    73.010902
5656.39    121.242950    84.517960
5657.60    93.513382    88.531471
5658.82    130.999069    78.004044
5660.03    142.552826    88.184998
5661.25    131.319244    96.268204
5662.46    139.168488    74.318939
5663.68    102.034515    84.079903
5664.89    79.513870    104.931366
5666.11    119.493752    98.338753
5667.32    130.498642    86.334427
5668.54    135.604736    85.701805
5669.75    155.468170    91.986473
5670.96    148.308960    85.846375
5672.18    144.623138    84.542107
5673.39    157.267731    94.233833
5674.61    157.783463    100.900887
5675.82    132.025909    105.628052
5677.04    113.398720    104.083817
5678.25    137.705032    93.642410
5679.47    151.318710    95.188057
5680.68    137.511612    106.227974
5681.90    120.952896    110.719124
5683.11    133.337448    103.140800
5684.32    133.522125    93.913467
5685.54    112.150284    91.230370
5686.75    146.501984    89.705627
5687.97    173.309769    93.823631
5689.18    155.721191    101.803482
5690.40    143.779938    103.158005
5691.61    113.208443    107.000511
5692.83    89.481041    114.269165
5694.04    130.580322    112.988503
5695.25    166.005081    95.849396
5696.47    159.990051    84.255066
5697.68    136.592529    99.158501
5698.90    141.064926    109.351723
5700.11    135.010269    116.964592
5701.33    97.410721    125.826607
5702.54    124.229103    103.990532
5703.76    160.810776    96.895737
5704.97    148.359390    120.242325
5706.19    134.190186    105.059898
5707.40    135.393692    90.171440
5708.61    137.250793    99.808945
5709.83    117.757935    101.401909
5711.04    112.961380    105.653625
5712.26    132.478973    110.873322
5713.47    145.894119    102.615723
5714.69    127.932243    100.280853
5715.90    122.841385    100.048355
5717.12    164.829620    90.265984
5718.33    151.925781    93.095833
5719.55    121.585693    104.478790
5720.76    135.116150    110.339935
5721.97    129.820007    112.329659
5723.19    118.621315    109.129662
5724.40    127.446045    100.966949
5725.62    139.022766    94.777245
5726.83    131.156784    102.954544
5728.05    117.926880    115.945625
5729.26    137.544189    107.344536
5730.48    148.418274    97.179649
5731.69    138.350632    95.998703
5732.91    133.797409    97.075806
5734.12    132.052841    103.894249
5735.33    143.781754    101.915611
5736.55    167.868134    85.298126
5737.76    147.294174    99.281654
5738.98    115.898041    115.198807
5740.19    112.652290    101.620201
5741.41    88.205612    105.445374
5742.62    94.043182    111.672287
5743.84    145.343628    101.999138
5745.05    146.730331    98.745567
5746.27    122.758736    103.856529
5747.48    112.089081    115.581757
5748.69    115.267509    130.819397
5749.91    132.547440    118.523384
5751.12    147.220200    94.393158
5752.34    136.645126    103.614090
5753.55    113.987389    118.928864
5754.77    104.516800    114.567741
5755.98    116.957596    94.905045
5757.20    113.520699    102.488098
5758.41    96.152657    122.044113
5759.63    97.618202    119.883415
5760.84    143.632874    103.248810
5762.05    167.068451    94.462242
5763.27    138.552200    98.138092
5764.48    136.420639    92.751854
5765.70    134.175186    106.831184
5766.91    111.717171    142.000458
5768.13    104.147026    152.284744
5769.34    124.791512    134.369339
5770.56    134.973709    126.924744
5771.77    91.472588    161.036957
5772.99    79.810997    152.043091
5774.20    110.170845    113.994354
5775.41    131.920532    112.594841
5776.63    146.207657    100.591484
5777.84    147.385391    87.869293
5779.06    136.604401    97.983856
5780.27    142.885254    93.541000
5781.49    148.303589    98.885284
5782.70    148.268784    117.188522
5783.92    181.256439    85.456734
5785.13    176.026520    78.381119
5786.35    123.696777    124.034439
5787.56    122.383850    140.413116
5788.77    136.636902    140.191452
5789.99    131.582520    140.954102
5791.20    121.482185    136.385590
5792.42    138.360229    127.839241
5793.63    164.733749    124.280403
5794.85    156.924835    132.070313
5796.06    122.361496    138.043228
5797.28    117.167984    131.137466
5798.49    152.587524    115.174637
5799.70    112.446373    113.898926
5800.92    81.590759    114.629097
5802.13    128.765564    106.457878
5803.35    130.894730    110.360535
5804.56    117.980774    115.975372
5805.78    131.037750    114.132370
5806.99    137.257629    114.296051
5808.21    124.799820    118.242966
5809.42    112.009552    122.026398
5810.64    124.286041    122.007622
5811.85    127.922287    126.333099
5813.06    129.665985    125.970741
5814.28    154.181137    110.231804
5815.49    149.191101    109.896439
5816.71    130.600159    121.852715
5817.92    138.842422    125.832893
5819.14    146.524185    125.413841
5820.35    146.870224    117.658775
5821.57    144.803970    106.466858
5822.78    138.924515    111.352425
5824.00    137.890015    113.399895
5825.21    141.145172    102.682907
5826.42    132.211487    102.446167
5827.64    111.983315    120.252426
5828.85    107.068031    134.992538
5830.07    139.541534    118.348068
5831.28    133.624908    110.605728
5832.50    106.848686    118.354881
5833.71    132.130951    115.197166
5834.93    142.707230    110.416016
5836.14    155.592514    105.828293
5837.36    198.424393    101.028755
5838.57    161.345261    111.228653
5839.78    111.966171    124.233337
5841.00    127.189056    124.650024
5842.21    119.127045    119.830673
5843.43    125.604080    107.221893
5844.64    165.855392    95.822151
5845.86    161.711731    109.707642
5847.07    136.809128    124.300217
5848.29    124.039406    125.006752
5849.50    122.836517    124.866257
5850.72    125.409286    125.225128
5851.93    130.693054    130.946533
5853.14    140.092331    141.673706
5854.36    141.096313    125.820366
5855.57    136.457047    107.579575
5856.79    134.370056    122.440315
5858.00    127.707443    130.168823
5859.22    133.317245    120.522202
5860.43    157.537689    109.503876
5861.65    162.215912    115.690430
5862.86    128.670074    138.139618
5864.08    97.698257    159.906372
5865.29    151.283188    159.729691
5866.50    212.209106    149.728989
5867.72    207.374664    143.043365
5868.93    148.639984    141.847992
5870.15    110.681793    151.884750
5871.36    110.186966    157.422974
5872.58    113.626152    140.155945
5873.79    136.102905    134.627197
5875.01    163.202530    138.943222
5876.22    165.564514    133.724243
5877.44    148.473846    135.394989
5878.65    142.804932    133.786255
5879.86    154.637344    123.830162
5881.08    135.390121    135.375107
5882.29    122.368057    143.958969
5883.51    128.324417    141.858337
5884.72    95.064934    183.040176
5885.94    82.696365    324.939850
5887.15    122.873779    611.086121
5888.37    161.327728    1001.948975
5889.58    124.791481    1197.968750
5890.80    52.698277    1081.083008
5892.01    45.797211    805.971375
5893.22    75.644119    665.575439
5894.44    100.888855    694.770020
5895.65    113.084015    728.175720
5896.87    152.014206    615.714600
5898.08    187.649399    392.169678
5899.30    178.379440    196.343689
5900.51    141.174316    145.190552
5901.73    124.332413    154.979950
5902.94    134.033875    144.609283
5904.15    119.349052    144.660263
5905.37    108.905289    147.026123
5906.58    137.897812    136.682724
5907.80    193.496490    117.306793
5909.01    173.898254    126.184143
5910.23    128.653641    140.378586
5911.44    167.498901    121.459396
5912.66    169.310547    141.801834
5913.87    138.219574    178.195435
5915.09    138.612518    172.544891
5916.30    133.791519    154.115891
5917.51    137.640945    140.835266
5918.73    160.112854    136.784470
5919.94    160.543671    140.918549
5921.16    158.091858    142.694290
5922.37    157.710571    143.624908
5923.59    132.178314    156.010223
5924.80    134.052704    152.064850
5926.02    156.225571    135.580048
5927.23    139.055634    140.286194
5928.45    124.354141    154.678085
5929.66    127.848770    162.205811
5930.87    130.866745    157.214310
5932.09    125.481369    151.033478
5933.30    134.737900    147.070236
5934.52    165.294983    144.869141
5935.73    167.562286    146.408508
5936.95    154.095154    137.561249
5938.16    153.978577    119.899284
5939.38    168.617889    121.021271
5940.59    167.135864    126.158241
5941.81    144.954742    127.008797
5943.02    129.252792    137.578751
5944.23    110.674927    161.572617
5945.45    101.664505    170.701340
5946.66    123.221436    142.130630
5947.88    142.352463    136.865372
5949.09    134.733002    149.076492
5950.31    113.687325    147.195831
5951.52    133.999954    157.950546
5952.74    142.070297    163.842056
5953.95    111.944122    147.567276
5955.17    133.978851    132.565979
5956.38    155.685226    124.051758
5957.59    147.928253    118.205986
5958.81    159.397980    113.215256
5960.02    135.298248    118.610031
5961.24    102.132545    127.162628
5962.45    137.661179    124.464729
5963.67    149.057404    131.681305
5964.88    124.033150    141.493256
5966.10    112.670425    137.000595
5967.31    113.690819    137.284912
5968.53    125.574852    136.424255
5969.74    142.949097    127.747620
5970.95    148.663605    129.011292
5972.17    140.249893    134.993576
5973.38    117.758331    139.651260
5974.60    85.415215    148.333023
5975.81    89.080894    159.696182
5977.03    117.866394    163.767578
5978.24    119.115761    151.342300
5979.46    130.168640    137.313370
5980.67    147.119949    136.058853
5981.89    143.578949    144.016006
5983.10    146.593323    129.530197
5984.31    136.122498    111.419113
5985.53    105.847809    116.027931
5986.74    117.928009    127.080360
5987.96    145.198822    128.917267
5989.17    146.837692    124.868774
5990.39    124.378716    132.702057
5991.60    107.406616    132.005920
5992.82    117.249634    125.075699
5994.03    144.293381    134.047638
5995.25    134.641296    131.283569
5996.46    120.685181    112.806885
5997.67    150.469849    102.067741
5998.89    142.883606    120.232529
6000.10    101.746292    139.445007
6001.32    87.073059    132.271439
6002.53    136.228241    119.859268
6003.75    170.769714    118.193230
6004.96    155.591675    120.337090
6006.18    154.994507    105.542465
6007.39    148.973038    101.309258
6008.60    138.036896    114.965530
6009.82    147.062927    123.566711
6011.03    135.516571    116.995781
6012.25    122.704689    107.035629
6013.46    134.992020    110.366745
6014.68    107.115746    121.883232
6015.89    97.006760    122.836876
6017.11    149.969772    106.403038
6018.32    177.984406    94.594444
6019.54    141.484100    106.727112
6020.75    101.805412    120.168648
6021.96    155.726135    90.996643
6023.18    161.845184    85.342865
6024.39    120.917999    106.052254
6025.61    143.859421    100.464386
6026.82    134.265152    95.312271
6028.04    95.431854    105.440948
6029.25    98.497993    117.479324
6030.47    154.941803    103.847588
6031.68    180.238724    94.472397
6032.90    148.558472    104.697311
6034.11    154.095062    98.909157
6035.32    146.583405    101.696091
6036.54    121.943642    109.758781
6037.75    142.355957    91.339355
6038.97    139.345322    96.574112
6040.18    120.581490    104.934845
6041.40    137.062424    77.619896
6042.61    143.946060    91.763046
6043.83    116.501785    120.426018
6045.04    81.076401    112.754868
6046.26    101.607452    94.735420
6047.47    135.915405    89.118790
6048.68    144.952759    92.069984
6049.90    144.735840    82.638496
6051.11    139.687302    82.912437
6052.33    130.928040    91.302155
6053.54    124.557297    88.299217
6054.76    136.017242    92.266281
6055.97    147.822968    100.165794
6057.19    138.273376    101.593819
6058.40    121.474495    105.284126
6059.62    114.406525    104.187531
6060.83    117.896301    95.478546
6062.04    116.864960    90.589226
6063.26    122.633209    87.151695
6064.47    127.601730    88.539772
6065.69    116.871544    98.455406
6066.90    133.111267    92.003761
6068.12    146.271835    81.523392
6069.33    119.810570    89.003883
6070.55    119.848801    94.951340
6071.76    117.208626    104.969498
6072.98    96.002548    116.208939
6074.19    116.195984    102.393837
6075.40    113.204704    97.710167
6076.62    89.096733    103.732353
6077.83    115.953011    86.920540
6079.05    113.899124    83.425301
6080.26    93.300850    88.553467
6081.48    109.230209    81.483192
6082.69    113.431274    93.585602
6083.91    100.170174    100.528214
6085.12    90.985031    85.128448
6086.34    96.836243    84.493149
6087.55    90.540466    95.314178
6088.76    76.980484    99.853806
6089.98    90.237930    90.160301
6091.19    99.408493    86.308998
6092.41    114.441803    81.764648
6093.62    146.572784    69.131363
6094.84    127.251419    87.676270
6096.05    104.679413    107.975174
6097.27    121.669014    100.204964
6098.48    122.661682    90.665207
6099.69    118.267708    86.925301
6100.91    123.353081    89.271042
6102.12    127.147202    97.418327
6103.34    111.880981    105.848526
6104.55    103.612282    102.791985
6105.77    124.255157    86.014877
6106.98    122.115211    80.203400
6108.20    115.634796    89.243202
6109.41    133.910599    97.215530
6110.63    157.324417    86.992928
6111.84    140.089035    91.315147
6113.05    112.002892    103.873703
6114.27    139.745453    85.858994
6115.48    148.815735    69.595810
6116.70    128.432739    71.945374
6117.91    119.064453    79.642723
6119.13    131.404114    67.289803
6120.34    134.283157    63.613262
6121.56    118.424248    77.770523
6122.77    118.145126    71.421974
6123.99    126.369766    63.424889
6125.20    129.949066    70.591141
6126.41    123.298080    88.529686
6127.63    106.899887    102.703331
6128.84    101.164742    96.348587
6130.06    112.283203    74.039551
6131.27    108.613373    71.450172
6132.49    108.545517    75.958122
6133.70    115.983139    74.998787
6134.92    109.229599    76.919632
6136.13    125.144463    78.946083
6137.35    147.419159    78.860519
6138.56    133.642532    79.694740
6139.77    106.141129    89.070976
6140.99    100.683899    104.294136
6142.20    120.752411    112.265495
6143.42    128.783035    99.679840
6144.63    138.673431    87.763107
6145.85    141.778259    85.911026
6147.06    116.778198    83.490463
6148.28    118.014656    77.871689
6149.49    139.565903    71.585556
6150.71    142.846268    69.574585
6151.92    123.545235    75.495186
6153.13    110.555901    82.308708
6154.35    117.108139    80.916435
6155.56    125.732002    70.804527
6156.78    130.112915    72.260757
6157.99    140.084290    80.900917
6159.21    154.293564    79.868439
6160.42    131.652557    77.350128
6161.64    107.658066    83.827393
6162.85    107.299744    94.757050
6164.07    94.885468    91.725655
6165.28    97.619583    88.338165
6166.49    116.785225    88.824211
6167.71    120.101006    87.974236
6168.92    105.325104    100.644096
6170.14    110.866516    106.824341
6171.35    137.045135    93.237488
6172.57    110.809677    89.402214
6173.78    103.168335    86.406334
6175.00    120.574898    80.934639
6176.21    89.270378    85.051636
6177.43    82.226776    88.130028
6178.64    120.793472    75.978119
6179.85    153.801407    57.941914
6181.07    120.422089    74.498428
6182.28    106.200043    83.971535
6183.50    130.001801    72.975044
6184.71    101.659134    85.113304
6185.93    87.598587    94.578369
6187.14    107.958534    89.184608
6188.36    127.058411    77.662796
6189.57    128.043320    66.705437
6190.79    110.529266    81.708885
6192.00    108.675987    106.963165
6193.21    158.279861    87.154266
6194.43    157.788437    69.125137
6195.64    114.492119    68.933754
6196.86    108.306107    66.438553
6198.07    117.776443    66.153412
6199.29    136.064270    67.324165
6200.50    144.504440    69.822601
6201.72    111.502609    77.735092
6202.93    104.623383    83.233200
6204.14    124.948982    81.147758
6205.36    125.581787    74.295654
6206.57    132.600235    71.393440
6207.79    126.817116    72.662529
6209.00    104.431419    74.904526
6210.22    107.663673    78.031372
6211.43    103.125801    86.501411
6212.65    103.104515    90.383644
6213.86    132.889145    81.155136
6215.08    117.799011    82.405655
6216.29    105.768646    77.225342
6217.50    130.464218    65.777344
6218.72    123.854149    87.095787
6219.93    109.947998    96.868004
6221.15    108.175964    89.650871
6222.36    112.783897    92.513557
6223.58    124.447380    83.314697
6224.79    130.429565    74.975250
6226.01    127.046036    77.970345
6227.22    128.106262    75.261833
6228.44    125.270569    74.435951
6229.65    120.771217    77.453423
6230.86    124.531540    79.388206
6232.08    130.052017    85.532417
6233.29    118.199989    111.404198
6234.51    110.962029    140.981903
6235.72    151.297668    135.048599
6236.94    134.699112    144.167740
6238.15    91.382149    154.372772
6239.37    106.699051    127.092789
6240.58    114.220039    108.373428
6241.80    132.191711    101.146835
6243.01    147.312012    98.053986
6244.22    102.309418    103.205681
6245.44    102.045135    105.114838
6246.65    130.325241    91.633972
6247.87    131.061111    68.114212
6249.08    157.722168    64.493423
6250.30    134.143295    82.096718
6251.51    81.919006    91.212845
6252.73    114.873360    71.533752
6253.94    139.355484    86.499176
6255.16    119.775047    126.248543
6256.37    91.942879    147.438950
6257.58    97.189819    143.566116
6258.80    111.063545    125.374725
6260.01    113.875015    105.294922
6261.23    111.342010    94.582176
6262.44    110.500374    104.712807
6263.66    97.541550    121.369286
6264.87    90.824883    124.064514
6266.09    132.425934    110.303268
6267.30    132.223679    109.129944
6268.52    122.317406    108.493324
6269.73    154.009857    88.431725
6270.94    109.932838    83.040314
6272.16    110.968407    85.808250
6273.37    165.869629    86.066406
6274.59    124.353638    87.711090
6275.80    92.558235    87.105782
6277.02    99.292198    79.829956
6278.23    109.436951    69.439285
6279.45    117.808754    66.719139
6280.66    137.914429    60.440922
6281.88    135.706528    64.037849
6283.09    89.638367    90.464943
6284.30    99.674767    94.270256
6285.52    131.706818    97.667526
6286.73    129.359558    120.880920
6287.95    105.095375    136.200867
6289.16    97.935822    116.957138
6290.38    117.249313    93.793808
6291.59    136.849213    95.062325
6292.81    120.874046    87.680489
6294.02    97.807304    84.966469
6295.24    103.629288    111.768517
6296.45    132.147888    166.939789
6297.66    119.003815    206.901855
6298.88    104.298615    248.355911
6300.09    120.518356    267.090637
6301.31    128.845886    195.598618
6302.52    122.212509    139.720779
6303.74    115.365128    130.528091
6304.95    126.007668    131.177521
6306.17    151.134674    124.736824
6307.38    138.368759    114.262573
6308.59    100.264816    101.454803
6309.81    92.766022    90.054497
6311.02    102.392815    97.599785
6312.24    112.864929    94.650269
6313.45    117.068024    77.515945
6314.67    116.246994    81.693123
6315.88    116.244987    84.853058
6317.10    113.057648    80.390427
6318.31    107.966309    82.473923
6319.53    116.034615    100.618294
6320.74    130.077087    101.826385
6321.95    125.949280    92.201370
6323.17    101.695465    93.539886
6324.38    106.518364    83.750519
6325.60    123.064346    85.373520
6326.81    129.269760    101.695877
6328.03    122.226509    113.356453
6329.24    93.409134    138.309402
6330.46    91.850380    133.313461
6331.67    113.990593    107.014473
6332.89    92.837067    130.568542
6334.10    101.221535    115.920860
6335.31    118.867294    83.042213
6336.53    100.094650    81.167679
6337.74    84.383591    71.543182
6338.96    94.157295    76.300438
6340.17    104.720284    91.351387
6341.39    92.990173    92.448082
6342.60    93.636559    88.449760
6343.82    92.472092    86.397621
6345.03    89.849823    84.350388
6346.25    105.194580    80.032417
6347.46    119.136681    84.131256
6348.67    102.621330    89.615433
6349.89    81.203133    85.075050
6351.10    102.783730    73.526855
6352.32    95.534393    80.616692
6353.53    87.329865    88.608742
6354.75    110.409378    87.103218
6355.96    118.604561    99.902397
6357.18    105.144783    106.317635
6358.39    95.850685    98.579803
6359.61    114.664574    89.140678
6360.82    147.773605    92.545578
6362.03    135.080719    101.884537
6363.25    92.860985    120.311256
6364.46    73.772224    138.325455
6365.68    71.550560    115.309891
6366.89    79.367325    93.475677
6368.11    97.851822    84.222588
6369.32    115.342865    68.299591
6370.54    98.360909    68.556076
6371.75    101.376358    77.227951
6372.97    117.324150    83.980492
6374.18    94.202591    86.093582
6375.39    93.621719    75.643532
6376.61    101.756363    74.415405
6377.82    97.321640    83.441589
6379.04    97.886246    81.784775
6380.25    118.438812    88.399643
6381.47    116.888855    98.924858
6382.68    90.732857    110.407043
6383.90    89.988686    127.461182
6385.11    85.026382    120.978714
6386.33    101.587631    92.366287
6387.54    134.686935    66.082726
6388.75    121.188934    62.047066
6389.97    101.613411    70.525154
6391.18    96.452423    68.625664
6392.40    98.033150    56.851635
6393.61    94.648735    61.961525
6394.83    80.270325    69.351280
6396.04    92.902893    64.620628
6397.26    117.846855    62.204895
6398.47    77.438301    90.167755
6399.69    77.065628    107.974480
6400.90    100.777695    115.343262
6402.11    102.034607    119.976128
6403.33    126.238335    101.017006
6404.54    133.841888    90.821228
6405.76    113.591759    90.174919
6406.97    89.059509    85.014908
6408.19    81.934105    79.872841
6409.40    97.499786    64.108627
6410.62    108.602287    56.852493
6411.83    103.003670    65.989784
6413.04    109.393898    60.616001
6414.26    113.659187    61.250744
6415.47    114.971954    62.957676
6416.69    114.986076    58.001492
6417.90    103.223686    65.762108
6419.12    103.282318    72.031067
6420.33    102.079323    62.713390
6421.55    90.965927    49.991169
6422.76    96.905525    61.941708
6423.98    93.433464    72.471565
6425.19    92.449478    63.330681
6426.40    106.320663    48.884796
6427.62    105.393059    55.716061
6428.83    81.479408    57.007256
6430.05    89.541763    46.640228
6431.26    118.728622    45.693504
6432.48    83.932007    66.659698
6433.69    91.640396    65.795090
6434.91    110.349144    55.772472
6436.12    94.979797    57.126347
6437.34    94.652565    56.486198
6438.55    106.829712    55.288425
6439.76    115.356537    62.830467
6440.98    118.639328    64.449631
6442.19    125.347656    42.995598
6443.41    123.594955    48.488094
6444.62    113.572884    51.099869
6445.84    95.255989    43.567471
6447.05    72.106339    56.101208
6448.27    70.831871    51.494495
6449.48    84.490219    56.773438
6450.70    81.021645    70.969124
6451.91    62.836872    61.691448
6453.12    97.863434    51.018406
6454.34    100.076859    67.789101
6455.55    85.349518    80.735992
6456.77    106.276649    60.775517
6457.98    75.076569    59.308990
6459.20    83.506218    51.816925
6460.41    108.186630    52.400120
6461.63    91.971428    76.060722
6462.84    99.460419    81.699799
6464.06    98.989594    90.662163
6465.27    96.156883    92.738197
6466.48    98.435104    80.408173
6467.70    82.967468    76.076675
6468.91    86.693199    63.550144
6470.13    99.895737    75.380196
6471.34    109.889931    92.786392
6472.56    118.418221    59.901974
6473.77    96.474045    47.681633
6474.99    87.817032    51.914333
6476.20    99.590729    53.197601
6477.42    101.555084    52.324860
6478.63    108.995293    47.304153
6479.84    93.131416    50.535568
6481.06    85.314362    53.203751
6482.27    104.002167    49.007858
6483.49    87.115082    54.884239
6484.70    98.874680    42.323650
6485.92    106.136742    35.407349
6487.13    90.175377    43.915356
6488.35    105.188782    38.226212
6489.56    83.946838    62.175892
6490.78    84.286072    73.161133
6491.99    110.876419    56.223633
6493.20    102.410164    47.916870
6494.42    111.471985    38.504742
6495.63    118.731743    49.521511
6496.85    103.035088    81.092499
6498.06    84.989433    104.040413
6499.28    100.172630    97.756668
6500.49    116.693367    87.755814
6501.71    89.567307    81.001968
6502.92    54.742512    74.430489
6504.14    87.263855    75.331322
6505.35    110.208366    89.009506
6506.56    108.029961    90.443665
6507.78    98.966316    80.401825
6508.99    95.811043    75.518555
6510.21    103.236885    60.261971
6511.42    102.904289    49.657600
6512.64    88.891991    54.409042
6513.85    86.315506    57.203526
6515.07    110.788177    37.643356
6516.28    86.464989    39.152729
6517.49    74.917648    56.522579
6518.71    96.838120    60.671169
6519.92    97.085815    46.846466
6521.14    100.026726    45.535786
6522.35    99.225456    61.744286
6523.57    90.532089    67.189697
6524.78    85.073326    55.707428
6526.00    89.326576    58.942791
6527.21    81.330490    52.436836
6528.43    81.080101    50.801643
6529.64    94.454712    55.989040
6530.85    94.854759    57.914848
6532.07    79.211510    84.052505
6533.28    98.246696    85.549881
6534.50    114.590813    72.287697
6535.71    101.903702    70.532852
6536.93    110.655609    60.656170
6538.14    90.647324    55.413090
6539.36    79.297798    48.126934
6540.57    86.330910    48.748196
6541.79    80.132339    63.852776
6543.00    82.072815    57.868385
6544.21    98.426773    53.570744
6545.43    93.284653    58.215473
6546.64    83.221458    56.726955
6547.86    116.482574    46.977676
6549.07    112.946259    57.660343
6550.29    110.250938    65.358887
6551.50    106.777145    70.211998
6552.72    90.087387    80.095879
6553.93    104.329979    75.244766
6555.15    83.672104    79.444115
6556.36    93.958359    63.588776
6557.57    123.655937    36.289871
6558.79    94.942795    38.708431
6560.00    78.535431    48.176689
6561.22    74.943855    56.665001
6562.43    76.534340    55.833359
6563.65    90.677513    45.133652
6564.86    107.607925    39.548267
6566.08    82.289253    51.229626
6567.29    73.615799    59.042679
6568.51    104.975082    52.183880
6569.72    118.914307    45.052788
6570.93    77.508476    50.091141
6572.15    86.356262    43.068924
6573.36    84.079605    49.070221
6574.58    75.969452    59.664097
6575.79    103.706375    56.103878
6577.01    96.266235    65.340668
6578.22    80.407501    66.694496
6579.44    90.559235    61.095779
6580.65    104.387733    55.328972
6581.87    90.917450    49.983723
6583.08    78.452888    51.653980
6584.29    64.704865    62.813290
6585.51    78.707329    51.068298
6586.72    106.661896    33.857311
6587.94    99.532181    45.902874
6589.15    76.985138    37.180901
6590.37    78.699211    38.493073
6591.58    86.290565    40.660370
6592.80    83.873749    41.045586
6594.01    92.193787    51.240402
6595.23    107.230392    36.477444
6596.44    71.334686    64.789978
6597.65    64.880547    82.962013
6598.87    97.672997    61.097179
6600.08    82.330093    59.934872
6601.30    92.338196    57.408203
6602.51    76.552696    54.196323
6603.73    60.187141    60.044277
6604.94    77.172409    60.975281
6606.16    94.457550    43.582260
6607.37    96.370407    41.590546
6608.58    79.826157    39.301090
6609.80    71.661514    34.370529
6611.01    79.435051    37.579212
6612.23    87.472336    44.948383
6613.44    103.452217    39.477390
6614.66    91.479919    33.164280
6615.87    79.005608    37.691757
6617.09    92.125237    41.178886
6618.30    97.205879    37.904781
6619.52    64.684143    54.266571
6620.73    64.189705    46.545334
6621.94    92.521721    35.323338
6623.16    101.292168    35.158604
6624.37    85.801941    31.020920
6625.59    90.030830    36.910946
6626.80    95.506310    37.634075
6628.02    92.522781    34.695496
6629.23    88.109375    38.080688
6630.45    85.707092    45.259624
6631.66    84.427139    45.069580
6632.88    100.727722    46.122925
6634.09    96.461990    44.026428
6635.30    80.789520    49.151192
6636.52    85.142464    56.292030
6637.73    87.400932    41.846802
6638.95    65.326874    45.664352
6640.16    73.130852    50.804901
6641.38    90.593117    38.924816
6642.59    77.891647    37.412136
6643.81    58.344807    61.759033
6645.02    63.403748    47.263020
6646.24    95.955551    37.482357
6647.45    117.552010    37.002724
6648.66    112.036728    33.146328
6649.88    92.668045    36.512405
6651.09    66.138123    48.463142
6652.31    70.014839    41.243397
6653.52    84.731735    32.632004
6654.74    89.716606    36.289333
6655.95    83.198555    42.578568
6657.17    72.001221    43.137390
6658.38    81.636070    40.822247
6659.60    81.155640    38.296631
6660.81    85.375061    36.006557
6662.02    91.237068    40.385296
6663.24    73.712021    52.178986
6664.45    72.175858    52.946503
6665.67    72.648048    47.442768
6666.88    52.685020    46.248592
6668.10    56.191624    46.442867
6669.31    84.739655    43.794327
6670.53    70.298668    43.154430
6671.74    88.614487    38.902832
6672.96    106.863739    32.811226
6674.17    88.092468    34.279873
6675.38    73.843727    43.618984
6676.60    100.189903    51.270695
6677.81    105.281357    57.769478
6679.03    85.484192    74.818947
6680.24    90.680077    67.402115
6681.46    111.132515    43.827873
6682.67    97.415840    42.055092
6683.89    58.422512    54.028061
6685.10    63.081955    39.191822
6686.32    80.853165    36.671009
6687.53    74.678970    45.382488
6688.74    62.205811    41.342266
6689.96    72.325012    31.888994
6691.17    85.173370    37.834724
6692.39    68.847427    33.289787
6693.60    58.324265    33.347984
6694.82    89.703430    31.315411
6696.03    113.707611    29.050682
6697.25    85.299263    38.896423
6698.46    69.289597    44.052162
6699.68    72.585495    40.349743
6700.89    67.531166    38.192707
6702.10    60.022823    36.943645
6703.32    69.428551    32.809219
6704.53    81.975143    34.672176
6705.75    71.764465    44.714920
6706.96    76.434471    26.120424
6708.18    77.396255    25.550804
6709.39    63.751793    37.189552
6710.61    48.939640    38.705391
6711.82    55.542698    39.737900
6713.03    86.658524    31.557123
6714.25    60.192986    36.028450
6715.46    57.710075    52.392914
6716.68    78.250786    65.440170
6717.89    82.178856    56.661106
6719.11    84.780769    35.521843
6720.32    78.801567    39.836555
6721.54    86.742462    31.343281
6722.75    76.838051    27.935009
6723.97    75.928307    30.373493
6725.18    88.781662    38.283749
6726.39    80.407990    48.458500
6727.61    75.934746    29.398745
6728.82    64.798515    31.706192
6730.04    71.773888    38.923546
6731.25    75.670738    44.168327
6732.47    79.845345    39.919884
6733.68    90.873535    23.978928
6734.90    62.808380    27.289099
6736.11    55.953083    36.731606
6737.33    79.102844    37.054470
6738.54    96.039436    32.943542
6739.75    89.839951    30.008345
6740.97    79.051514    33.805588
6742.18    71.337074    44.954453
6743.40    46.774940    39.150887
6744.61    65.493172    39.453465
6745.83    74.297302    40.959362
6747.04    67.885895    37.288296
6748.26    66.637810    36.529186
6749.47    53.809074    40.090458
6750.69    64.508080    37.771217
6751.90    80.551483    30.793694
6753.11    72.660835    27.264044
6754.33    81.703499    26.938801
6755.54    94.246895    31.523750
6756.76    72.640213    39.678223
6757.97    66.182846    40.052162
6759.19    61.017685    38.627319
6760.40    65.702454    35.200584
6761.62    64.169571    37.608196
6762.83    72.367699    39.566788
6764.05    73.471519    36.694153
6765.26    49.475769    34.614902
6766.47    85.780449    27.180714
6767.69    87.317886    32.200790
6768.90    84.421608    33.644897
6770.12    83.519005    27.685009
6771.33    73.618820    29.538219
6772.55    68.764923    37.626747
6773.76    67.977287    37.006012
6774.98    62.727371    38.194214
6776.19    71.220436    24.685806
6777.41    72.351570    27.927095
6778.62    61.930241    40.236931
6779.83    71.307518    35.909508
6781.05    95.288841    27.899979
6782.26    82.709557    33.845459
6783.48    64.944260    33.204288
6784.69    78.326996    27.047031
6785.91    79.054527    32.228153
6787.12    81.843559    37.663277
6788.34    82.660248    35.974010
6789.55    62.200542    35.543575
6790.77    80.713501    30.991934
6791.98    69.177078    33.848103
6793.19    79.770096    23.084606
6794.41    72.809792    28.188334
6795.62    76.927002    33.645538
6796.84    89.251511    26.521532
6798.05    51.997509    32.923962
6799.27    45.172375    37.904709
6800.48    77.353127    38.175941
6801.70    89.519264    37.112530
6802.91    89.262657    32.811760
6804.13    80.740204    31.494648
6805.34    73.703667    32.756397
6806.55    82.758629    30.997047
6807.77    76.321075    32.965683
6808.98    59.488014    32.608902
6810.20    69.756569    27.683323
6811.41    67.066254    24.276035
6812.63    58.122379    24.455557
6813.84    60.451157    31.721951
6815.06    59.978619    37.360630
6816.27    58.910805    28.936766
6817.48    54.858459    32.797714
6818.70    60.627300    28.795765
6819.91    60.495621    32.278950
6821.13    60.160233    41.482624
6822.34    71.916161    39.030624
6823.56    74.205269    33.005985
6824.77    58.731770    43.299221
6825.99    73.406975    56.618378
6827.20    90.493393    56.336063
6828.42    82.332794    66.369270
6829.63    78.681725    73.473862
6830.84    91.342819    72.895630
6832.06    72.783249    72.735901
6833.27    43.458626    70.541656
6834.49    79.219711    66.948158
6835.70    68.190002    62.483559
6836.92    68.111458    57.793938
6838.13    79.781143    39.128872
6839.35    73.082535    35.012421
6840.56    60.721443    39.585415
6841.78    52.739788    41.963669
6842.99    52.388573    47.447083
6844.20    82.570908    23.339357
6845.42    68.986053    33.861298
6846.63    56.889404    32.729759
6847.85    51.017044    29.629213
6849.06    72.991043    31.246365
6850.28    71.088585    31.431532
6851.49    45.307312    31.552750
6852.71    71.697540    31.427574
6853.92    43.380173    37.162827
6855.14    70.051208    27.842396
6856.35    67.545731    32.672367
6857.56    64.825005    27.643654
6858.78    73.250534    25.790516
6859.99    71.090057    46.874130
6861.21    68.126289    63.648983
6862.42    57.626339    75.182205
6863.64    41.156353    110.846985
6864.85    52.922009    100.907959
6866.07    59.300442    74.335854
6867.28    54.000729    56.017662
6868.50    45.045818    35.184006
6869.71    33.707382    27.583761
6870.92    33.331112    36.240093
6872.14    45.178104    28.332447
6873.35    43.445988    24.220266
6874.57    62.407333    19.735353
6875.78    36.563248    26.645912
6877.00    36.814346    29.952671
6878.21    42.618687    39.259995
6879.43    48.066677    42.432327
6880.64    74.273247    27.761889
6881.86    71.695038    25.632057
6883.07    59.112885    31.990139
6884.28    51.812477    28.849970
6885.50    59.610836    34.845169
6886.71    68.787369    27.016901
6887.93    61.426994    29.363258
6889.14    65.563606    41.904800
6890.36    76.757416    36.071198
6891.57    59.161312    25.442112
6892.79    45.879570    30.249153
6894.00    49.942852    30.406656
6895.22    46.788036    23.920885
6896.43    63.077454    23.993460
6897.64    69.329590    30.385162
6898.86    57.492790    30.972366
6900.07    53.107368    34.356194
6901.29    41.305073    44.635780
6902.50    32.744247    39.227276
6903.72    80.905838    24.035158
6904.93    61.035145    24.159109
6906.15    49.281017    19.362026
6907.36    57.880711    30.738243
6908.58    58.483772    31.937147
6909.79    55.477928    30.251860
6911.00    51.259865    43.613235
6912.22    56.893669    46.962044
6913.43    72.804390    42.418392
6914.65    41.499687    48.313622
6915.86    53.066868    26.541697
6917.08    47.742592    26.639860
6918.29    43.869003    29.135080
6919.51    55.291088    33.122070
6920.72    60.468884    46.220863
6921.93    61.349262    54.404503
6923.15    59.727821    56.941898
6924.36    52.917534    59.728897
6925.58    73.742752    48.667923
6926.79    59.610470    36.667961
6928.01    54.901108    40.528389
6929.22    38.071377    51.796032
6930.44    29.549421    47.818840
6931.65    51.146244    34.749153
6932.87    61.722221    30.857838
6934.08    55.018055    26.806255
6935.29    64.882179    20.712214
6936.51    56.859070    39.503433
6937.72    74.073608    41.071743
6938.94    69.603172    37.369068
6940.15    51.825138    54.187050
6941.37    64.282089    44.909386
6942.58    62.623032    29.476078
6943.80    46.050941    31.036150
6945.01    47.740288    34.515301
6946.23    41.826611    50.244358
6947.44    65.996002    48.878708
6948.65    40.809502    78.642540
6949.87    43.364761    61.408974
6951.08    70.006165    50.386822
6952.30    57.120350    47.661137
6953.51    44.722137    35.113918
6954.73    46.540966    30.359148
6955.94    49.102234    34.517040
6957.16    66.574631    34.093971
6958.37    48.674625    33.841175
6959.59    57.761642    24.095520
6960.80    65.231346    14.272129
6962.01    52.967129    27.484230
6963.23    58.370430    28.295942
6964.44    67.972565    33.395172
6965.66    59.874352    36.233582
6966.87    52.027229    31.317825
6968.09    56.323528    39.403202
6969.30    54.808361    37.267811
6970.52    40.064529    44.897526
6971.73    52.379612    42.238293
6972.95    63.270012    33.952435
6974.16    43.550652    40.624966
6975.37    43.859425    35.886089
6976.59    51.124840    39.660618
6977.80    51.446060    57.054070
6979.02    52.411160    64.083069
6980.23    48.203529    58.307842
6981.45    72.799530    32.477356
6982.66    65.730560    37.000450
6983.88    36.378017    25.123045
6985.09    41.064606    23.855970
6986.31    41.955639    34.499405
6987.52    59.121185    23.913170
6988.73    56.878422    20.808113
6989.95    39.155190    33.089981
6991.16    61.597065    28.427597
6992.38    65.068932    24.953075
6993.59    44.850258    25.988064
6994.81    49.858067    25.531094
6996.02    43.574959    33.082344
6997.24    58.789612    23.397598
6998.45    61.829773    21.239719
6999.67    46.763191    25.115072
7000.88    53.430481    28.723503
7002.09    58.279953    35.904343
7003.31    43.644302    34.685780
7004.52    53.580853    31.555429
7005.74    51.996109    39.006012
7006.95    58.344875    29.491451
7008.17    61.403645    34.315289
7009.38    71.081917    30.035719
7010.60    53.458920    40.211220
7011.81    35.887756    42.769943
7013.03    40.900448    37.927055
7014.24    57.383083    41.076302
7015.45    71.863045    30.902180
7016.67    59.092819    22.154842
7017.88    57.965458    15.986498
7019.10    56.784546    21.496799
7020.31    49.501373    21.464884
7021.53    52.077393    28.162722
7022.74    40.331516    27.369909
7023.96    40.437294    25.952246
7025.17    59.873539    24.819893
7026.38    56.533943    23.889084
7027.60    52.133190    32.734699
7028.81    72.953621    37.082577
7030.03    55.202255    58.393158
7031.24    68.255692    66.957512
7032.46    64.275131    63.962841
7033.67    48.928955    55.492733
7034.89    37.844418    55.307873
7036.10    51.251347    42.323681
7037.32    54.469196    25.595549
7038.53    35.914200    27.874361
7039.74    37.167984    35.444408
7040.96    36.085457    41.087437
7042.17    60.636185    19.201488
7043.39    46.708168    35.001411
7044.60    45.662643    31.471058
7045.82    69.708931    37.736149
7047.03    73.975868    40.205013
7048.25    64.468849    34.481812
7049.46    59.781578    35.115276
7050.68    53.560467    31.164818
7051.89    50.783756    27.312353
7053.10    48.797707    30.901783
7054.32    45.758507    23.379269
7055.53    54.737278    23.362949
7056.75    55.710114    26.761072
7057.96    54.441643    31.365744
7059.18    44.580296    29.465902
7060.39    57.728825    20.760813
7061.61    68.106735    24.033443
7062.82    55.688251    34.972687
7064.04    65.147125    33.081264
7065.25    35.692402    37.052216
