#Wavelength     Flux    Sky Spectrum 
#[Angstrom]   [Counts]     [Counts]
4545.04     2.162961     7.496915
4545.66     1.585003     7.996809
4546.27     8.026928     5.265524
4546.89    11.551600     3.793692
4547.50     5.267174     5.357921
4548.12     2.154838     7.941844
4548.73     1.636503     6.179991
4549.35     3.552351     3.407707
4549.96     8.077936     3.403177
4550.58    10.998434     3.779513
4551.19     8.227495     1.966415
4551.81     6.371389     4.936062
4552.43     5.126541     6.666643
4553.04     5.634015     5.120789
4553.66     7.103852     3.989268
4554.27     6.046734     4.974022
4554.89     4.799980     5.218353
4555.50     7.384957     4.066033
4556.12    12.665533     4.965667
4556.73    11.173160     7.517018
4557.35     1.809433     7.985724
4557.96     3.255205     6.566729
4558.58    13.294509     3.163273
4559.20    11.146673     1.711256
4559.81     2.119689     4.136744
4560.43     3.431248     7.158898
4561.04     7.033541     7.084652
4561.66     3.046240     7.209403
4562.27    -0.904353    10.411484
4562.89    -0.353528    11.751703
4563.50     5.677712     8.296001
4564.12    13.052723     5.103814
4564.73     4.985779     4.600367
4565.35     3.948518     6.769769
4565.96     5.921006     8.593493
4566.58     3.635029     7.323381
4567.20     2.940730     4.983541
4567.81     0.925393     6.569071
4568.43     4.007479     7.992460
4569.04     7.797872     7.458587
4569.66     9.615461     4.824896
4570.27     9.780542     3.100452
4570.89     7.141033     5.797364
4571.50     7.121027     6.201418
4572.12     5.546449     5.924660
4572.73     6.154292     5.932259
4573.35    11.145160     4.424312
4573.97    10.931540     3.013835
4574.58     0.907697     6.499129
4575.20     4.392617     6.200792
4575.81     9.625864     3.922919
4576.43     8.704398     4.713359
4577.04     7.796286     5.828686
4577.66     7.586943     3.072971
4578.27    14.208187     5.920071
4578.89    11.256157    12.379932
4579.50     8.262355    10.109329
4580.12     7.580694     5.021201
4580.74     1.016648     7.973773
4581.35     8.170346     2.605052
4581.97     5.495007     4.376329
4582.58     2.943478     5.896502
4583.20     8.138918     5.409270
4583.81     9.454799     8.428090
4584.43     4.073775     9.971293
4585.04     8.361506     9.495328
4585.66    11.223109     7.002494
4586.27     7.692152     2.822788
4586.89     2.812587     5.142201
4587.51     2.202407    11.962018
4588.12     7.316139     4.806841
4588.74     9.623986     4.809157
4589.35     6.491625     6.451273
4589.97     5.568129     5.944551
4590.58     8.334441     7.560598
4591.20     7.998846     8.997535
4591.81     7.873528     5.453420
4592.43     9.013190     6.046281
4593.04    11.633110     7.226785
4593.66    10.789928     7.192520
4594.27     6.680562     8.059518
4594.89     7.837307     7.130702
4595.51    10.991116     4.471894
4596.12    14.143213     4.116349
4596.74     8.333700     6.222815
4597.35     3.250388     6.648601
4597.97     8.213388     4.954480
4598.58     6.970714     5.904298
4599.20    10.167502     6.000087
4599.81     9.864223     6.331635
4600.43     7.041702     4.738497
4601.04     7.280106     3.071788
4601.66     7.969182     5.089643
4602.28     6.264513     5.837651
4602.89     5.898321     7.203115
4603.51    10.480316     4.797419
4604.12    10.466666     3.043584
4604.74     7.160425     5.599261
4605.35    11.041019     7.003664
4605.97     8.895668     6.826888
4606.58     4.834084     8.418551
4607.20     8.347911     4.712640
4607.81    12.839947     2.402544
4608.43    11.762796     5.094153
4609.05    10.022588     3.994426
4609.66     5.572555     6.783068
4610.28     5.892127     4.987133
4610.89    11.669639     4.760740
4611.51     8.574137     8.227511
4612.12     1.111660     8.689035
4612.74     8.854784     6.032350
4613.35     7.023452     8.317323
4613.97    -2.225203    16.936165
4614.58     2.124512    13.355044
4615.20     7.596471     6.208056
4615.82     1.497528     9.370669
4616.43     4.754904     8.128275
4617.05    10.502626     5.054879
4617.66     9.147082     7.134186
4618.28     4.884566     6.801126
4618.89     6.686059     2.829554
4619.51     8.221079     5.102718
4620.12     1.018547    12.882939
4620.74     8.242281     9.441033
4621.35    10.019845     5.834511
4621.97     9.462971     7.118701
4622.58     9.088393     7.608280
4623.20     8.757092     4.455664
4623.82    14.993509     2.039304
4624.43     9.051168     2.555197
4625.05    10.042758     5.034957
4625.66     8.213023    10.369097
4626.28     3.436674    12.875097
4626.89     5.151978     9.436038
4627.51     5.891248     7.062894
4628.12    10.101707     6.386057
4628.74     5.269813    10.915521
4629.35     7.670387    10.209298
4629.97    11.271380     8.567465
4630.59     5.504714    10.845172
4631.20     7.917336     7.052583
4631.82    10.919570     6.884779
4632.43     9.333874     6.432328
4633.05     6.578609     5.945499
4633.66     6.225229     8.327552
4634.28    10.270605     9.681041
4634.89    14.999941     5.999864
4635.51     9.043351     5.844050
4636.12     8.209517     6.383164
4636.74    13.097454     9.051048
4637.36    12.408041    11.579875
4637.97    10.826000    10.572391
4638.59    18.109777     7.927607
4639.20    16.198263     5.956270
4639.82     8.216159     7.633080
4640.43     4.864491     6.937845
4641.05     7.649689     6.367338
4641.66    12.070357     6.502753
4642.28    15.088125     3.999068
4642.89    15.152129     5.952893
4643.51    14.019477     3.733450
4644.13    14.807101     3.872069
4644.74    13.823175     8.162474
4645.36     6.112089     9.776729
4645.97     0.193963     6.729414
4646.59     9.132295     5.045305
4647.20    12.880875     5.076490
4647.82    13.248355     4.489139
4648.43     8.749274     7.072121
4649.05     9.275054    10.506242
4649.66    18.477634     8.535756
4650.28    14.416251     5.958202
4650.90     9.048145     9.253645
4651.51     6.287342     9.558522
4652.13    13.738018     5.857801
4652.74    16.141819     8.356482
4653.36    10.390362    12.580875
4653.97    17.012985     6.043048
4654.59     9.366731     8.802891
4655.20    16.733917     5.179167
4655.82    12.858942     6.926189
4656.43     4.255497    11.723291
4657.05    10.025181     6.067762
4657.66    10.991570     0.024801
4658.28    11.588226     6.875116
4658.90    14.863050     9.677629
4659.51    12.394832     7.144017
4660.13    12.610443     5.894581
4660.74    13.989861     7.609361
4661.36     7.825130     8.992549
4661.97    11.422371     6.519683
4662.59    14.434040     2.348305
4663.20    10.597040     9.493036
4663.82     6.831740    11.833923
4664.43    13.913152     7.701191
4665.05    21.695265    10.228813
4665.67    12.279434     9.143758
4666.28    13.277763     6.854254
4666.90     6.929347     9.471889
4667.51    12.768549     7.765738
4668.13    18.987532     4.991787
4668.74    11.755996     8.838844
4669.36    18.043802     9.977361
4669.97    17.730892     5.761501
4670.59     5.287045    12.324425
4671.20    11.779382    10.531518
4671.82    18.364012     5.071768
4672.44    11.150073     7.680157
4673.05    11.915710     7.861537
4673.67     8.944895     4.406423
4674.28    13.584423     2.593051
4674.90    14.646876     5.468519
4675.51    11.720027     7.145008
4676.13    11.015744     5.470315
4676.74    12.251185     6.495743
4677.36    13.962074    10.904648
4677.97    14.405661     9.004427
4678.59    17.852238     6.057900
4679.21    10.788057    11.021390
4679.82     5.596178    12.820617
4680.44     9.813862     9.280547
4681.05     2.919663    12.983568
4681.67     1.324495     6.694151
4682.28     7.289186     8.322596
4682.90     9.236236    10.522996
4683.51    10.186259     7.110591
4684.13    13.579483     5.050798
4684.74    14.016732     7.137299
4685.36    14.087089     7.147943
4685.97    12.031946     5.784347
4686.59     9.299099     8.182531
4687.21    20.164347     7.699391
4687.82    26.601131     4.275026
4688.44    13.428501     3.981544
4689.05    11.849915     3.976053
4689.67    16.371840     6.076344
4690.28     9.010496    10.630049
4690.90     6.846287     8.336100
4691.51    11.042460     6.805280
4692.13    14.444299     8.415353
4692.74    19.981169     3.987343
4693.36    13.184018     7.701937
4693.98     8.669468     5.448012
4694.59    11.914604     2.870543
4695.21    17.382843     3.268090
4695.82    16.750822     4.520228
4696.44    11.782957     6.086730
4697.05    12.952284     6.015185
4697.67    11.985571     6.505851
4698.28    14.023914     8.866497
4698.90    14.417581     7.256860
4699.51    12.723167     7.138798
4700.13    12.999413     9.702029
4700.75    11.996271     4.994259
4701.36    10.197047     5.764252
4701.98     9.926227     5.730034
4702.59     9.899729     8.054435
4703.21    10.512775     7.659626
4703.82    12.603638     5.146040
4704.44    12.790646     8.128843
4705.05     9.860098     7.201311
4705.67    15.816483     5.576019
4706.28    20.544748     3.341438
4706.90    17.654297     4.070457
4707.52    12.618133     6.485030
4708.13    10.930953     5.727576
4708.75    11.007320     4.945986
4709.36    10.195032     8.482430
4709.98    10.336144     8.247750
4710.59    16.549875     5.163227
4711.21    17.205927     3.812433
4711.82     9.883446     5.732682
4712.44     7.864520     9.111850
4713.05     6.249058     9.317714
4713.67    17.182837     6.304160
4714.28    19.089485     7.725557
4714.90    14.319915     8.582647
4715.52    14.218472     6.720210
4716.13    17.805361     5.653498
4716.75    23.923588     2.954823
4717.36    19.700409     6.524043
4717.98    14.545407     5.053715
4718.59    14.750816     5.050442
4719.21    16.317665     7.257734
4719.82    17.509295     5.610241
4720.44    22.093773     3.975183
4721.05    24.840357     2.979849
4721.67    14.740274     4.150930
4722.29    13.731367     6.411714
4722.90    20.577749     3.806784
4723.52    21.923256     1.432195
4724.13    20.960552     6.374730
4724.75    20.255331     8.724338
4725.36    16.335661    12.105220
4725.98    18.184189     8.132442
4726.59    16.666233     6.573034
4727.21     7.812881     9.667898
4727.82     7.367375     8.617114
4728.44    18.916769     6.031798
4729.06    16.225557     5.490570
4729.67    12.754230     9.407215
4730.29    14.229119     7.715236
4730.90    11.916508     4.466142
4731.52    11.419010     4.886141
4732.13    17.936495     2.854888
4732.75     9.788183     2.537840
4733.36    11.408023     8.250771
4733.98    25.029942     6.003381
4734.59    26.939194     1.939443
4735.21    19.809122     3.880286
4735.83    19.875753     6.204477
4736.44    17.117279     7.842115
4737.06    16.592392    11.731745
4737.67    19.105412     9.682391
4738.29    20.329653     7.066683
4738.90    22.330143     6.870618
4739.52    23.477726     7.323883
4740.13    17.871271    10.078032
4740.75    17.128859    11.397798
4741.36    24.571972     6.455566
4741.98    19.052717     5.038060
4742.59    17.097336     6.159493
4743.21    25.202282     6.237906
4743.83    19.947548     8.221157
4744.44    11.790487     9.137870
4745.06    22.176687     5.831149
4745.67    19.537836     4.526557
4746.29    16.969042     5.646722
4746.90    19.631054     5.835239
4747.52    17.178513     4.867718
4748.13    21.935394     5.943003
4748.75    23.151880     9.951226
4749.36    22.007271     6.464144
4749.98    18.485001     5.862867
4750.60    14.732839     8.795280
4751.21    15.966293     7.251457
4751.83    18.901686     5.030497
4752.44    12.767886     9.151508
4753.06    10.114250    14.706201
4753.67     9.577149    11.978329
4754.29    11.710473     7.514935
4754.90    16.286873     6.821723
4755.52    20.657368     5.863355
4756.13    23.283154     5.014754
4756.75    14.356922     5.597260
4757.37    15.404263     7.467044
4757.98    15.486197     7.848414
4758.60    20.715353     6.405107
4759.21    27.692684     4.636652
4759.83    11.988059     2.998487
4760.44    16.675499     2.879983
4761.06    17.740616     3.722234
4761.67    13.937132     4.461258
4762.29    18.479580     8.436585
4762.90    24.143238    10.287978
4763.52    22.115078     4.814731
4764.14    27.588919     5.808212
4764.75    26.288666     5.969316
4765.37    22.943817     6.914860
4765.98    18.026566     5.689528
4766.60    19.320835     4.207879
4767.21    24.394676     6.057311
4767.83    14.152882     5.027459
4768.44    21.900196     6.299680
4769.06    23.526844     8.943103
4769.67    22.218275     7.345961
4770.29    19.837986     6.778578
4770.91    15.020831    10.386337
4771.52    19.993906     9.004897
4772.14    21.247967     5.280283
4772.75    19.860279     6.181802
4773.37    21.984295     7.306525
4773.98    27.346622     6.851009
4774.60    26.493425     7.161149
4775.21    18.828854     8.045732
4775.83    21.468452     8.158035
4776.44    22.778927     6.325645
4777.06    19.509293     6.363160
4777.67    20.863100     4.202540
4778.29    22.076727     4.333448
4778.91    18.056379     8.919888
4779.52    21.128901     4.147130
4780.14    14.786437     7.132331
4780.75    18.322674     7.029697
4781.37    19.822124     6.419971
4781.98    19.671082     8.553791
4782.60    26.423889     7.541888
4783.21    24.073330     4.067153
4783.83    24.371460     3.735455
4784.44    27.769663     4.934536
4785.06    29.889238     4.210902
4785.68    29.835215     2.381533
4786.29    28.643505     2.113272
4786.91    24.881861     3.009442
4787.52    17.790943     2.372100
4788.14    16.864176    -0.021435
4788.75    20.374977     2.563218
4789.37    22.539406     8.424264
4789.98    21.510765     9.498399
4790.60    21.165295     5.850407
4791.21    22.766794     5.860637
4791.83    10.818605     6.747554
4792.45    10.510566     7.601704
4793.06    23.646191     8.219036
4793.68    28.548286     7.647687
4794.29    25.203461     5.788295
4794.91    30.887722     4.895334
4795.52    25.773655     7.452842
4796.14    23.018295     7.730195
4796.75    21.407898     6.430484
4797.37    16.319376     5.805371
4797.98    14.045767     6.220147
4798.60    18.589104     7.093931
4799.22    27.251362     3.886482
4799.83    24.159946     8.311634
4800.45    15.373487     8.215642
4801.06    13.437711     7.167860
4801.68    16.229860    12.394464
4802.29    16.956089    10.050904
4802.91    22.757452     7.343833
4803.52    26.403812     6.217451
4804.14    23.453575     5.656830
4804.75    18.006092     4.304007
4805.37    17.694195     4.496112
4805.98    24.112408     6.995253
4806.60    27.462410     3.675331
4807.22    21.232782     1.716353
4807.83    18.812571     3.193611
4808.45    22.903465     3.867922
4809.06    25.044359     2.874317
4809.68    21.744610     4.125597
4810.29    16.265057     7.602452
4810.91    18.069429     8.523416
4811.52    19.146738     6.284698
4812.14    25.786415     4.576664
4812.75    33.320972     5.349019
4813.37    27.589781     5.944815
4813.99    22.080170     4.873573
4814.60    12.951835     7.587553
4815.22    21.867464     6.114419
4815.83    30.046930     3.114749
4816.45    26.604578     4.958131
4817.06    29.316732     6.876670
4817.68    29.639185     4.728646
4818.29    19.715944    11.518428
4818.91    15.486751    10.820416
4819.52    19.001787     4.009690
4820.14    19.106209     6.093098
4820.76    17.356712    11.882112
4821.37    23.000546     5.345549
4821.99    16.658424     7.663683
4822.60    16.122913     9.652187
4823.22    14.485691     8.531508
4823.83     7.357849     9.743010
4824.45     7.368715    10.793410
4825.06    14.962009     7.176156
4825.68    27.277035     7.625953
4826.29    20.559090     7.968424
4826.91    11.134628     8.714683
4827.53    19.418398     8.217665
4828.14    28.905712     6.075099
4828.76    19.570724     8.874986
4829.37    18.603294     7.806420
4829.99    17.533018     5.549481
4830.60    15.525410     8.132314
4831.22    22.796307     9.265450
4831.83    29.525518     5.970484
4832.45    20.130562     8.016771
4833.06    27.633942     5.185520
4833.68    23.995129     8.188222
4834.29    23.870926     9.105727
4834.91    28.403364     7.183263
4835.53    21.510733     8.950367
4836.14    21.155737     6.179623
4836.76    16.584036     6.193913
4837.37    18.895536     9.628168
4837.99    24.169582     8.046278
4838.60    24.783958     6.845046
4839.22    21.346249     9.798570
4839.83    16.959110     5.083752
4840.45    21.670368     8.984267
4841.06    22.798122     8.592906
4841.68    19.230066     7.040251
4842.30    22.290089     7.888720
4842.91    26.500200     7.052992
4843.53    17.986572     8.083828
4844.14    26.465212     5.426979
4844.76    17.169827     6.287378
4845.37    20.236458     5.908223
4845.99    32.857094     4.117614
4846.60    25.236412     6.067585
4847.22    37.344528     5.100854
4847.83    32.186909     5.043197
4848.45    31.750505     4.462953
4849.07    29.505629     7.044607
4849.68    18.795605    10.133531
4850.30    18.314173     7.837171
4850.91    23.707701     6.281059
4851.53    21.645178     3.910543
4852.14    18.448748     6.674857
4852.76    26.597954     9.438425
4853.37    33.705402     7.334140
4853.99    24.593973     6.026599
4854.60    19.724566     7.800984
4855.22    15.804993     7.602297
4855.84    29.276806     5.883647
4856.45    35.351685     4.528557
4857.07    26.439375     5.625918
4857.68    28.956192     7.992451
4858.30    21.607374     5.326724
4858.91    25.484060     5.748861
4859.53    27.542839     4.960492
4860.14    21.557697     7.010535
4860.76    19.164806    10.852433
4861.37    22.934673     6.057305
4861.99    24.619085     5.750215
4862.60    19.028080     6.093108
4863.22    13.567258     6.207544
4863.84    13.581703     7.661941
4864.45    19.318869     7.634914
4865.07    26.891216     4.970579
4865.68    24.269999     8.870861
4866.30    27.728806    10.542574
4866.91    29.059454     6.161049
4867.53    21.166296     4.673614
4868.14    15.959399     8.036026
4868.76    18.851135     5.216031
4869.37    17.831738     5.957610
4869.99    21.509327     9.091572
4870.61    24.064028     6.853517
4871.22    25.250242     2.426561
4871.84    29.979452     3.044099
4872.45    25.375931     4.352923
4873.07    27.547487    10.228745
4873.68    28.620510     8.067834
4874.30    17.973490     7.856257
4874.91    10.408511    13.210391
4875.53    21.040735     8.981994
4876.14    26.363693     7.007762
4876.76    29.342161     7.190893
4877.38    25.577557     6.060840
4877.99    21.864735     4.809814
4878.61    22.655792     6.475855
4879.22    19.002163     9.003428
4879.84    23.022606     6.628741
4880.45    23.079662     6.356961
4881.07    18.991505    10.491171
4881.68    18.490364    13.131950
4882.30    22.392899     9.455591
4882.91    24.307659     4.904237
4883.53    18.782526    10.534491
4884.15    16.546991    15.100614
4884.76    22.235199    11.525659
4885.38    24.005655     6.204998
4885.99    19.050331     6.028624
4886.61    27.282738     7.716246
4887.22    22.978655     9.017845
4887.84    20.367624    12.207631
4888.45    26.023184    11.576154
4889.07    29.356627     6.583457
4889.68    29.175621     6.099914
4890.30    25.141359     2.549401
4890.92    27.812454     3.329747
4891.53    23.633266     6.166605
4892.15    16.574343     9.327819
4892.76    21.359562    11.855966
4893.38    22.287886     7.298551
4893.99    19.826616     9.015843
4894.61    22.957439     9.518978
4895.22    24.327526     7.202338
4895.84    25.504387     7.211965
4896.45    34.975990     8.004221
4897.07    30.751408     6.240061
4897.68    25.013716     6.560924
4898.30    23.739265     6.811366
4898.92    26.302635     5.615029
4899.53    29.005587     4.962134
4900.15    27.863922     5.751065
4900.76    31.979528     8.781707
4901.38    32.263676     6.960145
4901.99    30.929428     4.514282
4902.61    30.465088     5.064785
4903.22    26.939085     5.009169
4903.84    25.996273     6.467661
4904.45    26.246284     9.405227
4905.07    28.950455     9.247277
4905.69    29.250181     5.526599
4906.30    32.765030     4.284055
4906.92    46.853848     7.883306
4907.53    34.418476     6.482038
4908.15    22.961082     6.837473
4908.76    27.933815     8.429210
4909.38    34.613106     7.676158
4909.99    31.886282     5.934070
4910.61    30.047953     4.168898
4911.22    30.214214     4.278822
4911.84    28.539061     6.507192
4912.46    22.147270     8.441397
4913.07    22.537806     7.730458
4913.69    37.517471     5.998072
4914.30    31.371614     8.011572
4914.92    24.793203    10.694593
4915.53    22.622814    10.428254
4916.15    24.946569    10.522198
4916.76    35.131042    11.940585
4917.38    34.037178     5.973721
4917.99    29.896366     4.543308
4918.61    32.408192     4.716028
4919.23    30.323397     3.922264
4919.84    24.383234     3.925506
4920.46    33.633968     3.014401
4921.07    29.140484     3.757837
4921.69    31.850000     4.064805
4922.30    27.567444     7.016842
4922.92    15.314818     9.932340
4923.53    22.937176     6.032629
4924.15    26.399679     3.722382
4924.76    23.171730     6.731186
4925.38    22.645567     7.728869
4925.99    28.056452     7.452440
4926.61    34.423660     8.903744
4927.23    36.322842     5.403241
4927.84    32.088501     4.759152
4928.46    31.686111     4.881594
4929.07    30.301727     5.660142
4929.69    25.793810     6.990561
4930.30    25.322906     6.868325
4930.92    17.019493    10.674495
4931.53    26.214569     8.088388
4932.15    33.476921     3.285661
4932.76    30.046822     3.403504
4933.38    35.116032     6.064444
4934.00    36.581856     7.929347
4934.61    32.168232     7.345286
4935.23    31.972799     7.211056
4935.84    29.715368     8.385197
4936.46    22.959311     9.015003
4937.07    30.599283     8.251898
4937.69    37.952862     6.456524
4938.30    29.572529    10.477189
4938.92    22.448395    12.397801
4939.53    29.414358     7.156094
4940.15    34.882751     5.849822
4940.77    34.385300     9.803629
4941.38    34.000019     6.616269
4942.00    33.310310     4.025003
4942.61    30.041569     8.027740
4943.23    25.961693     9.993352
4943.84    25.469040     7.543293
4944.46    36.471344     6.523786
4945.07    37.981297     7.824629
4945.69    30.642262     7.395467
4946.30    28.696508     6.116888
4946.92    23.288130     9.688131
4947.54    25.402929     8.822199
4948.15    23.802057     7.948088
4948.77    28.206732     7.363905
4949.38    40.634411     6.110764
4950.00    35.745743     8.775599
4950.61    30.223087     9.689629
4951.23    22.098375    11.398127
4951.84    22.760288    11.220613
4952.46    31.962713     7.217616
4953.07    31.995371     4.979501
4953.69    33.372597     7.304303
4954.30    29.054552     8.406214
4954.92    28.156998     7.564864
4955.54    32.542427     6.870954
4956.15    33.004326     5.996511
4956.77    36.546516     4.183360
4957.38    35.915077     4.547608
4958.00    35.152985     4.980295
4958.61    34.052929     5.352513
4959.23    33.282623     7.049802
4959.84    42.489418     7.085029
4960.46    36.524788     6.579412
4961.07    29.860424     4.727797
4961.69    31.904230     4.490481
4962.31    36.635811     5.918229
4962.92    42.960224     3.207692
4963.54    37.322380     4.534285
4964.15    31.854826     7.883480
4964.77    39.504868     6.784004
4965.38    49.212204     4.071846
4966.00    39.847775     8.393850
4966.61    26.877670    11.908237
4967.23    41.078911    10.620953
4967.84    51.303127     8.521442
4968.46    40.109165     9.224141
4969.08    43.563728     9.263132
4969.69    43.852200     4.554599
4970.31    31.386791     6.764742
4970.92    27.239824    10.931766
4971.54    33.039921     9.628303
4972.15    27.260780     8.049254
4972.77    27.691517     7.895323
4973.38    32.950130     8.328738
4974.00    46.683231     9.966342
4974.61    52.251629    10.819503
4975.23    37.163368     9.022574
4975.85    45.171520     9.837003
4976.46    41.909832     9.133655
4977.08    37.288651     7.258409
4977.69    40.961529     8.910745
4978.31    37.037319    12.025987
4978.92    38.937553     6.923260
4979.54    42.180244     7.594219
4980.15    43.310867    11.332359
4980.77    42.740101    10.332838
4981.38    42.986622     7.010573
4982.00    44.760193     7.191839
4982.61    30.818434    11.236051
4983.23    23.703405    10.349710
4983.85    32.058662     8.519536
4984.46    38.021164    13.007071
4985.08    42.623318    11.361779
4985.69    41.606342    12.162381
4986.31    38.937656    12.572994
4986.92    37.657902    12.533637
4987.54    39.045757    13.976822
4988.15    46.390793     7.344889
4988.77    42.982964     5.600965
4989.38    36.559357     8.580118
4990.00    32.662075    13.789844
4990.62    31.046673    19.002008
4991.23    42.234474    14.430937
4991.85    42.362865    10.589189
4992.46    39.926125     9.534690
4993.08    35.086975     8.878612
4993.69    27.018578     7.995513
4994.31    45.385098     6.100277
4994.92    40.816078     7.396653
4995.54    30.751175    10.325877
4996.15    36.979855     8.942149
4996.77    41.015892     5.978548
4997.39    35.377567    13.662835
4998.00    39.578827    13.082020
4998.62    39.631886     8.371761
4999.23    30.318624     8.118080
4999.85    27.045101     8.978869
5000.46    26.059193     9.379772
5001.08    33.121662     6.938615
5001.69    43.551884     6.479049
5002.31    46.608593     6.405064
5002.92    40.279800     4.803322
5003.54    34.120480    14.382697
5004.16    26.504311    12.498198
5004.77    30.182465     4.005188
5005.39    36.350372     5.094770
5006.00    27.998077    11.830171
5006.62    38.045937     9.452654
5007.23    39.733547     6.720480
5007.85    40.559967     7.492698
5008.46    45.452831     7.894207
5009.08    36.361618     6.179379
5009.69    39.490875     5.269526
5010.31    34.564152     8.999843
5010.93    28.878624    10.578080
5011.54    34.670166     7.858615
5012.16    36.848953     8.890689
5012.77    37.422131     8.797434
5013.39    31.156261    10.398065
5014.00    31.745245     9.996482
5014.62    48.832859     5.732573
5015.23    59.751663     6.386982
5015.85    44.832844    10.645838
5016.46    39.636803     8.449749
5017.08    37.204559     4.789422
5017.69    22.839516     8.234970
5018.31    33.964264    10.341882
5018.93    43.289829     6.484318
5019.54    43.488567     5.548654
5020.16    41.535923     6.755361
5020.77    39.978699     6.033570
5021.39    37.544895    12.124380
5022.00    35.852757    11.176043
5022.62    33.886555     8.459627
5023.23    33.277771     8.945179
5023.85    34.108444     8.008505
5024.46    29.712250     8.334044
5025.08    35.976578     5.853110
5025.70    36.165997     6.143645
5026.31    29.206827     9.032340
5026.93    39.104946     7.048278
5027.54    42.744118     8.699870
5028.16    40.212242     7.394044
5028.77    41.339809     6.567443
5029.39    43.781055     9.031890
5030.00    36.467262     7.840478
5030.62    28.541651    11.876041
5031.23    27.391798    15.159541
5031.85    33.394382    12.783590
5032.47    36.821243    10.014459
5033.08    28.189251    12.662510
5033.70    28.875452    11.573359
5034.31    31.050789     8.968493
5034.93    33.908436     7.604603
5035.54    41.040443     7.914412
5036.16    33.045650    13.944315
5036.77    43.834690    13.897130
5037.39    54.184586    11.512958
5038.00    45.229515    10.518649
5038.62    38.303173     6.310228
5039.24    37.324940     4.957873
5039.85    35.238895     5.096594
5040.47    36.758915     7.234649
5041.08    38.364227    11.326196
5041.70    28.219406    12.351800
5042.31    36.704243     8.929707
5042.93    36.116241     8.853582
5043.54    35.157238     9.428168
5044.16    51.060097     5.978680
5044.77    41.362453     6.933245
5045.39    40.440891     5.405338
5046.00    36.102200     6.580883
5046.62    31.823078     8.635987
5047.24    51.052429     4.990315
5047.85    53.106876     9.515659
5048.47    53.015575    10.542663
5049.08    52.604111     8.939766
5049.70    43.897198     8.707685
5050.31    36.397556     5.074738
5050.93    37.475960     8.518926
5051.54    36.184387    12.713929
5052.16    34.486542    10.851486
5052.77    35.928669     9.062034
5053.39    27.287409    15.676256
5054.01    29.419874    10.097507
5054.62    42.249947     3.748152
5055.24    44.343124     8.191141
5055.85    27.272257    12.893604
5056.47    21.413671    11.118731
5057.08    38.216362     8.960308
5057.70    56.690018     6.925756
5058.31    55.055717     3.826489
5058.93    40.289410     3.747266
5059.54    34.072582     5.650119
5060.16    37.165379     8.843572
5060.78    34.969688    11.410196
5061.39    30.814976    11.034757
5062.01    52.910824     8.117723
5062.62    62.182598     4.751606
5063.24    46.250774     7.098692
5063.85    35.632057    10.928494
5064.47    48.586967     7.200502
5065.08    39.008072     9.529921
5065.70    42.977695    11.065578
5066.31    56.784187     7.803798
5066.93    52.902275     4.964699
5067.55    54.721367     5.588284
5068.16    58.408756     7.563501
5068.78    46.817413    13.493677
5069.39    38.258041    16.410952
5070.01    55.202732     9.358137
5070.62    50.167992    10.305843
5071.24    43.975830     9.457070
5071.85    47.279774     6.651020
5072.47    47.804886    10.453026
5073.08    42.764355    16.851570
5073.70    41.863300    12.803000
5074.31    41.015347    13.149876
5074.93    42.165764    16.436893
5075.55    48.014599     9.264849
5076.16    43.802021     9.887522
5076.78    55.307846     7.006940
5077.39    53.847012     6.410989
5078.01    33.753368    12.143692
5078.62    47.324760     9.413877
5079.24    42.112347    10.766506
5079.85    41.868912    14.788891
5080.47    49.486382    12.569239
5081.08    38.385876     5.196279
5081.70    39.795895     6.091017
5082.32    44.599049     7.228982
5082.93    44.500114     7.398759
5083.55    41.713512     9.091913
5084.16    40.406204     7.864182
5084.78    46.091293     2.509697
5085.39    46.781105     5.230753
5086.01    44.241348    11.440601
5086.62    46.189949     9.076768
5087.24    37.975956    10.442071
5087.85    37.991871    10.504323
5088.47    45.172253    10.556055
5089.09    43.305866    11.919680
5089.70    32.160255     9.807043
5090.32    33.501011    13.998734
5090.93    35.843647    15.351871
5091.55    37.509247    13.027644
5092.16    49.244232    14.165442
5092.78    53.909290     8.234126
5093.39    48.905006     4.909652
5094.01    39.917332     8.980289
5094.62    36.124432    13.006912
5095.24    40.480469     9.726791
5095.86    32.516918     8.600655
5096.47    37.554821     6.042522
5097.09    49.965034     6.126619
5097.70    41.014099    14.731750
5098.32    53.121975     9.796150
5098.93    56.112823     6.633552
5099.55    43.398834     9.775758
5100.16    40.074242     9.981095
5100.78    48.651352     8.815393
5101.39    47.502792    11.149873
5102.01    43.098145    13.535358
5102.62    39.918823    11.455762
5103.24    31.137981     7.312919
5103.86    38.820038     7.820546
5104.47    46.451702    10.202449
5105.09    42.232422    12.852419
5105.70    37.001030    15.029100
5106.32    41.499260    11.499554
5106.93    43.114880     8.064426
5107.55    44.344692     6.426080
5108.16    48.004234     6.090199
5108.78    44.604298     8.480301
5109.39    44.853191     9.972209
5110.01    49.262680     9.679233
5110.63    52.248589     7.340970
5111.24    52.796886     4.880178
5111.86    55.740700     8.771954
5112.47    53.354965     9.219879
5113.09    41.841873     8.619592
5113.70    34.004566    12.000941
5114.32    47.993195     9.219214
5114.93    59.727158     6.632161
5115.55    55.450706    10.413447
5116.16    53.079803    13.756034
5116.78    68.584999     6.988122
5117.40    54.590511     6.515315
5118.01    40.326569    11.712499
5118.63    45.279617    12.246779
5119.24    49.696083     7.121943
5119.86    52.122810    10.654537
5120.47    49.634129    15.069946
5121.09    36.502380    14.277887
5121.70    26.060839    10.968978
5122.32    43.611176     9.644833
5122.93    42.647053    12.004280
5123.55    38.394806    12.407133
5124.17    51.280975     9.873205
5124.78    56.449455    10.087911
5125.40    51.205666     8.230644
5126.01    52.661816     6.514820
5126.63    53.290146     8.869117
5127.24    41.202530    12.915047
5127.86    50.353268    10.813643
5128.47    51.291885    11.146628
5129.09    42.714840    16.872204
5129.70    47.890152    20.019381
5130.32    57.959419    13.579727
5130.94    49.781532     6.930356
5131.55    39.004131     4.474844
5132.17    44.807674     5.148622
5132.78    55.410339     7.565646
5133.40    57.031849     9.105667
5134.01    41.730038    14.102907
5134.63    31.865885    16.301693
5135.24    49.170792     8.429236
5135.86    51.321060    11.869428
5136.47    52.224503    12.778597
5137.09    55.680252     6.813267
5137.70    51.933678     5.866068
5138.32    56.400494    10.009995
5138.94    44.327869    14.793983
5139.55    40.568016    13.539762
5140.17    63.291725     8.997424
5140.78    63.510693    12.568876
5141.40    44.318703    10.121191
5142.01    36.185490     9.068596
5142.63    45.770123    14.245634
5143.24    50.079041    12.142336
5143.86    55.320576     6.898226
5144.47    50.162857     7.424778
5145.09    40.578678    11.248366
5145.71    48.207279    10.124447
5146.32    59.422054    10.674139
5146.94    58.173332    10.457821
5147.55    51.081787     8.662644
5148.17    51.875835     8.862593
5148.78    51.994209    11.489805
5149.40    47.946785    11.386656
5150.01    38.484516    11.731534
5150.63    30.006693    14.995043
5151.24    34.411530    13.206201
5151.86    36.677105     9.721913
5152.48    43.338974     9.478127
5153.09    56.460964     9.825953
5153.71    55.165440     5.802433
5154.32    45.115406    11.617360
5154.94    37.757393    16.637680
5155.55    35.811409    13.696758
5156.17    35.439999    13.644840
5156.78    40.453854    16.002972
5157.40    40.810852    17.222126
5158.01    41.217030    13.958823
5158.63    49.933411     7.536565
5159.25    42.336254     6.491390
5159.86    44.647964     7.127738
5160.48    54.864517     7.096920
5161.09    49.541912     8.777945
5161.71    44.531601    12.448719
5162.32    40.145287    15.979157
5162.94    36.124672    16.854624
5163.55    38.780773    14.097875
5164.17    50.997272     9.819435
5164.78    49.690231     9.127726
5165.40    45.177788    10.137330
5166.01    47.923744    10.009708
5166.63    40.643967    11.343833
5167.25    45.736294    13.472585
5167.86    53.173977    11.195034
5168.48    47.293678     5.754695
5169.09    38.782707     5.625481
5169.71    40.972630     6.661188
5170.32    52.567322     4.637288
5170.94    54.792450     4.550062
5171.55    38.436073    11.451276
5172.17    44.135345     8.854463
5172.78    55.901825     5.431621
5173.40    56.990952     7.223892
5174.02    55.683655     7.132661
5174.63    49.349369     6.295621
5175.25    47.237011     5.906030
5175.86    56.932686     7.637379
5176.48    69.645546    10.113714
5177.09    63.352699     6.629308
5177.71    57.131256     8.416835
5178.32    54.555069    11.865780
5178.94    46.394539     8.947186
5179.55    46.502655    13.641932
5180.17    49.504845    13.239701
5180.79    47.913677     9.970348
5181.40    40.454357    13.808130
5182.02    32.217724    15.254602
5182.63    37.201340     9.856174
5183.25    47.021660     7.755016
5183.86    44.170109    13.929589
5184.48    32.026993    14.129106
5185.09    37.777008    10.427684
5185.71    46.729912     7.042757
5186.32    40.935516     6.007606
5186.94    39.692276     7.595665
5187.56    40.633904     7.908712
5188.17    45.824600     6.361560
5188.79    53.113552     6.067091
5189.40    48.710651     9.242917
5190.02    34.541527    10.268645
5190.63    44.049053     7.762657
5191.25    63.723885     6.052956
5191.86    40.121834     9.156418
5192.48    49.674446    11.166129
5193.09    58.272850    13.073422
5193.71    41.618919    13.777740
5194.32    52.283855     8.255367
5194.94    54.513622     5.635398
5195.56    47.364918     9.097623
5196.17    46.219845    13.138357
5196.79    51.400784    10.989148
5197.40    57.695808     7.043648
5198.02    55.069595     9.057547
5198.63    41.044758    15.594304
5199.25    29.466831    17.303829
5199.86    41.838047    14.861139
5200.48    45.391636    14.511747
5201.09    33.288898    15.965996
5201.71    39.425232    13.576644
5202.33    51.562645    11.246732
5202.94    51.857483     8.526984
5203.56    44.462791     7.141360
5204.17    44.963474    10.365550
5204.79    42.677544    12.318153
5205.40    40.792686    11.071221
5206.02    44.999527    10.133600
5206.63    51.529072    12.613541
5207.25    49.653694    13.388075
5207.86    42.539486    12.536970
5208.48    43.267654    10.537621
5209.10    55.629646     6.686532
5209.71    55.546360     4.046061
5210.33    46.502750     8.008176
5210.94    43.399902    13.226479
5211.56    48.772984    10.553064
5212.17    44.534679     9.332502
5212.79    39.720261    10.977485
5213.40    38.494171    13.390434
5214.02    34.240906    14.366928
5214.63    36.957130    10.167053
5215.25    45.267380     7.474154
5215.87    48.670349     9.395189
5216.48    42.060307    11.045188
5217.10    39.251064    10.014149
5217.71    38.270348    14.366059
5218.33    41.265751    20.170071
5218.94    50.714718    15.977792
5219.56    44.731030    12.558458
5220.17    45.249870    11.662743
5220.79    52.929829    10.851640
5221.40    43.692768    11.247455
5222.02    40.019299    17.210255
5222.63    38.719818    17.430401
5223.25    37.306271    11.525455
5223.87    42.360180    11.699787
5224.48    42.803818    12.149700
5225.10    47.863052     9.298373
5225.71    51.144802     9.718907
5226.33    38.655174    17.641830
5226.94    47.228237    12.155035
5227.56    53.327553     5.736133
5228.17    47.005005     8.308220
5228.79    52.799225     9.828943
5229.40    46.160027    10.556998
5230.02    41.256104    11.358035
5230.64    49.830479    12.043311
5231.25    55.151367    13.193323
5231.87    51.354012    17.600502
5232.48    49.551388    17.917967
5233.10    54.278584    11.536863
5233.71    55.926414     6.721313
5234.33    56.150795     5.469218
5234.94    55.719234     8.954889
5235.56    57.232471    11.920511
5236.17    62.323101     6.910683
5236.79    55.492828     7.400678
5237.41    47.643475     8.372774
5238.02    49.026890     6.033612
5238.64    47.820415    10.867634
5239.25    46.195610    11.006308
5239.87    54.740982     6.716331
5240.48    67.990921     5.995684
5241.10    61.611233     9.412241
5241.71    49.652847     8.959430
5242.33    48.197819     8.682794
5242.94    51.188408    12.906688
5243.56    36.904884    13.824832
5244.18    30.673233    15.130424
5244.79    38.694988    15.679337
5245.41    44.970276    11.400491
5246.02    41.207073     5.449677
5246.64    41.801468     7.832846
5247.25    48.514423    12.185799
5247.87    50.322666     8.429143
5248.48    45.323593     6.148384
5249.10    52.499210     9.623972
5249.71    59.204006    11.580490
5250.33    45.571060     7.926894
5250.95    41.352627    13.223795
5251.56    44.960743    15.953496
5252.18    47.158806    11.097593
5252.79    47.670551     8.009352
5253.41    50.158119    10.085318
5254.02    44.638466    13.292177
5254.64    39.536877    13.914041
5255.25    51.715126    11.760063
5255.87    55.348614     8.204313
5256.48    45.828724     9.741935
5257.10    36.676373    14.123577
5257.71    38.424786    12.374008
5258.33    38.991665    12.751478
5258.95    47.457756    11.863945
5259.56    59.025871     7.903194
5260.18    49.510963     7.951949
5260.79    48.529861     7.112271
5261.41    53.917286     7.969352
5262.02    51.012291    10.999405
5262.64    46.032257     8.202322
5263.25    44.854912     6.400353
5263.87    46.483608     9.232507
5264.48    48.799946    12.045784
5265.10    54.230110     7.888050
5265.72    60.390236     5.221531
5266.33    52.713058     9.759311
5266.95    35.979073    15.909846
5267.56    51.665253    11.712088
5268.18    53.983852     7.899105
5268.79    42.972858     7.791353
5269.41    52.467155     6.035541
5270.02    46.273914     7.932464
5270.64    49.366982    11.888783
5271.25    59.712311    14.108922
5271.87    44.361900    13.357141
5272.49    37.366581    11.908169
5273.10    48.123363    12.834908
5273.72    52.055523    13.890000
5274.33    31.591900    10.592335
5274.95    44.010002    10.639654
5275.56    63.192581    12.313701
5276.18    55.833611    10.954719
5276.79    49.137367     8.647252
5277.41    46.838478    12.039460
5278.02    47.436436    13.042744
5278.64    46.284027     7.147132
5279.26    38.585407     8.046094
5279.87    47.273323     8.972977
5280.49    58.456448     7.908209
5281.10    51.483257     9.595703
5281.72    52.372616    13.825920
5282.33    43.572231    14.608565
5282.95    34.531422    11.419514
5283.56    47.508720    10.458584
5284.18    46.022190    15.590263
5284.79    41.620903    15.161184
5285.41    47.852085     8.543930
5286.02    53.794140     7.879521
5286.64    50.943115     7.508824
5287.26    47.558697     7.069531
5287.87    49.033432     9.121771
5288.49    48.428608    12.593391
5289.10    47.390953    11.974395
5289.72    46.793159    11.434980
5290.33    45.116417    13.051498
5290.95    41.241100     9.051394
5291.56    39.683876     9.174817
5292.18    46.880451    12.383105
5292.79    57.747299    12.006728
5293.41    51.435406    12.607119
5294.03    45.867840     9.674614
5294.64    52.674095     7.271441
5295.26    62.091763    11.023936
5295.87    61.963375     6.673018
5296.49    56.715942     7.321438
5297.10    52.698391    14.148801
5297.72    49.720421    10.106289
5298.33    47.358242     9.363420
5298.95    47.528255    11.301120
5299.56    50.011639     9.988523
5300.18    49.339909     8.691574
5300.80    40.038624    11.016053
5301.41    37.629196    14.938944
5302.03    51.062881    15.249412
5302.64    57.768753    10.297489
5303.26    60.531296    10.017674
5303.87    54.116280    13.298322
5304.49    39.176765    11.591721
5305.10    51.850433     7.986776
5305.72    62.733543     7.213868
5306.33    56.378201     7.910718
5306.95    52.649429     6.080937
5307.57    43.675098     7.802861
5308.18    45.952644    10.949242
5308.80    60.134750    13.058526
5309.41    55.909836    15.980925
5310.03    45.810101    13.562257
5310.64    47.346405     9.109027
5311.26    56.869812     9.739272
5311.87    49.717499    14.536007
5312.49    41.978798    15.955957
5313.10    39.147194    13.543433
5313.72    36.307186    10.790197
5314.33    46.812622     5.091070
5314.95    57.764530     5.973330
5315.57    57.536015    11.127440
5316.18    51.210720     7.921670
5316.80    49.187363     7.089668
5317.41    48.030293    12.631063
5318.03    44.995064    18.005512
5318.64    46.739071    15.194959
5319.26    49.397907    14.007360
5319.87    42.543774    16.820753
5320.49    30.218073    17.322985
5321.10    38.930672    11.636147
5321.72    51.467701    11.156714
5322.34    52.335159    15.390740
5322.95    46.539352    15.082784
5323.57    47.219036    15.716233
5324.18    43.922359    15.433752
5324.80    35.767017    14.002478
5325.41    38.393906    15.081459
5326.03    42.554230    13.190110
5326.64    44.619118    12.550965
5327.26    45.975365    15.925666
5327.87    46.734035    15.225849
5328.49    51.363716    12.172582
5329.11    53.476719    11.148104
5329.72    47.602051    14.291940
5330.34    48.024387    18.844860
5330.95    57.219337    16.531963
5331.57    61.461212     9.404059
5332.18    49.039993     8.828896
5332.80    43.041061    15.091556
5333.41    51.625931    15.380445
5334.03    61.001244     7.986043
5334.64    54.672668     9.163223
5335.26    60.309391    13.840130
5335.88    67.711990    14.549298
5336.49    55.589890    12.772925
5337.11    45.035427    18.165262
5337.72    46.161919    18.782047
5338.34    51.269802    16.264889
5338.95    51.144272    20.312981
5339.57    59.628693    12.610121
5340.18    68.036186     4.103161
5340.80    58.302341     9.346246
5341.41    33.355965    21.479708
5342.03    48.388214    18.752708
5342.64    74.377647     9.290312
5343.26    61.264210    10.517565
5343.88    36.955917    16.348408
5344.49    42.002647    14.505370
5345.11    51.333279    11.396165
5345.72    27.284000    17.571808
5346.34    35.573051    14.379379
5346.95    43.290607    15.898037
5347.57    27.565378    22.927309
5348.18    28.179131    12.863860
5348.80    31.149998    10.604423
5349.41    25.450026    16.109468
5350.03    22.219734    14.473498
5350.65    41.018097     7.129241
5351.26    44.115295     5.495326
5351.88    32.035702    11.019482
5352.49    35.754112    14.341862
5353.11    39.611706     9.559295
5353.72    45.363304     7.454585
5354.34    55.363720    11.064343
5354.95    56.757423    10.500815
5355.57    34.340427    14.855676
5356.18    20.200375    19.429735
5356.80    35.825371    16.397488
5357.42    40.681229    12.331816
5358.03    43.708389    10.135202
5358.65    46.588276    11.553161
5359.26    40.427280    15.610287
5359.88    43.473171    14.795983
5360.49    39.896542    12.377931
5361.11    27.902369    15.178682
5361.72    34.415089    21.717165
5362.34    41.134911    13.073208
5362.95    36.847282     7.043613
5363.57    28.439209    18.397015
5364.19    30.612381    14.750330
5364.80    43.576454    10.235157
5365.42    53.326992    12.005283
5366.03    47.365005     9.557847
5366.65    38.946480     9.084609
5367.26    35.266884    12.730408
5367.88    35.995960    15.004538
5368.49    37.019329    10.387897
5369.11    32.494827    13.623175
5369.72    35.958275    17.674416
5370.34    54.912964    10.836595
5370.96    61.546597     8.851482
5371.57    60.812420    11.141065
5372.19    60.963615    11.917531
5372.80    59.105721     9.186422
5373.42    53.812298     5.590630
5374.03    44.462963    12.107270
5374.65    41.556477    23.902868
5375.26    60.232330    16.199112
5375.88    63.843071    10.924310
5376.49    44.968231    13.052907
5377.11    32.397598    11.764298
5377.72    45.919056    15.902077
5378.34    51.083649    17.346720
5378.96    44.292660    11.726117
5379.57    62.557457     8.076964
5380.19    63.839245     9.589289
5380.80    47.920998    12.617344
5381.42    39.430573    13.849689
5382.03    37.523506    15.697953
5382.65    39.111046    15.182542
5383.26    43.904076    11.417115
5383.88    50.401672     8.122517
5384.49    48.653824     9.937536
5385.11    41.163906    14.785978
5385.73    34.103878    17.980543
5386.34    30.383631    17.141693
5386.96    38.700783    14.004107
5387.57    47.597862    11.764525
5388.19    42.354317    12.596585
5388.80    37.289814    15.111119
5389.42    49.016872    13.254965
5390.03    65.322037    10.047143
5390.65    58.308815    15.055964
5391.26    53.362846    18.888401
5391.88    66.960571    13.048918
5392.50    78.249268     4.062015
5393.11    46.579262    10.888332
5393.73    42.631367    12.558353
5394.34    66.129791     9.504694
5394.96    55.692680    18.183060
5395.57    54.905560    13.829578
5396.19    63.052074     7.257892
5396.80    63.051334    11.877323
5397.42    61.943520    14.496592
5398.03    70.471092     8.083384
5398.65    73.484604     4.756786
5399.27    55.417686    13.902122
5399.88    43.211704    13.489804
5400.50    50.845631     5.560228
5401.11    60.878685     3.170220
5401.73    48.627689    11.089100
5402.34    55.491890    12.305603
5402.96    67.469650    10.176392
5403.57    58.715366    13.706892
5404.19    60.204224    13.483009
5404.80    63.193413    10.578594
5405.42    51.983948    10.225362
5406.03    35.620724    14.108556
5406.65    56.951061    15.390880
5407.27    71.634514    13.027151
5407.88    52.483864    11.867718
5408.50    61.720459    15.812672
5409.11    68.104996    12.723184
5409.73    57.169659     8.195892
5410.34    49.683773    14.792707
5410.96    50.142036    15.720669
5411.57    61.942760    11.431124
5412.19    70.050224    10.975703
5412.80    51.170975    16.722225
5413.42    49.762852    16.608896
5414.04    62.209866    12.541433
5414.65    57.424976    12.919495
5415.27    52.074257    12.563832
5415.88    55.835800    14.466104
5416.50    57.660606    16.957771
5417.11    43.815693    12.589159
5417.73    49.653042     9.801478
5418.34    69.144859     8.277111
5418.96    73.019180     6.608411
5419.57    60.073692    13.502687
5420.19    58.738365    17.534382
5420.81    66.986504    14.804285
5421.42    58.155785    14.102299
5422.04    57.228321    13.443478
5422.65    57.426754    15.049583
5423.27    51.665932    18.887794
5423.88    64.194321    16.728411
5424.50    66.893379    10.953371
5425.11    57.484604     9.340590
5425.73    60.258656    15.490221
5426.34    59.562702    18.307331
5426.96    58.674694    13.705976
5427.58    64.657089     8.057678
5428.19    69.877235    11.543545
5428.81    70.956062    15.585541
5429.42    64.148560    14.571313
5430.04    51.014984    12.022745
5430.65    47.704403    14.297630
5431.27    49.176865    18.113935
5431.88    51.846790    18.048901
5432.50    63.289856    14.186722
5433.11    64.246178    12.815630
5433.73    61.796745    12.688659
5434.34    69.792320    10.176152
5434.96    62.209522    11.390514
5435.58    53.220097    13.543520
5436.19    56.037888    12.985526
5436.81    57.838352    10.939658
5437.42    54.439491     8.702141
5438.04    60.353550     9.759290
5438.65    77.436829    14.486735
5439.27    65.538811    15.515065
5439.88    47.616577    20.110786
5440.50    49.316662    24.912384
5441.11    59.625900    16.259464
5441.73    52.696331    15.574088
5442.35    42.478058    20.372898
5442.96    50.490410    16.117224
5443.58    56.729511     9.514851
5444.19    56.043938    11.510685
5444.81    53.998444    16.990234
5445.42    53.995731    11.901577
5446.04    43.881073    14.008665
5446.65    39.201363    17.789291
5447.27    51.751678    12.512678
5447.88    53.368950    12.505200
5448.50    49.852875    14.684161
5449.12    47.723763    15.032114
5449.73    44.964394    14.476131
5450.35    57.385006     7.594643
5450.96    63.489143     4.774420
5451.58    47.518311    13.086472
5452.19    44.138367    17.064013
5452.81    46.468052    19.437992
5453.42    43.651352    18.461376
5454.04    39.100735     9.996278
5454.65    38.142799    17.746113
5455.27    56.042538    22.265226
5455.89    80.046707     7.923399
5456.50    56.914429    10.064192
5457.12    38.595066    15.066090
5457.73    51.361469    17.729769
5458.35    63.887463    29.343224
5458.96    72.260254    27.742687
5459.58    67.430855    27.128214
5460.19    52.702652    40.196159
5460.81    56.278210    38.726643
5461.42    62.919891    33.138191
5462.04    60.617718    33.052208
5462.65    59.021873    31.755875
5463.27    70.503761    23.622135
5463.89    77.719246    19.164740
5464.50    68.766853    22.988483
5465.12    66.625465    18.862619
5465.73    63.191555    21.282833
5466.35    62.861149    27.983410
5466.96    76.082695    21.400475
5467.58    62.893730    21.947367
5468.19    54.377113    22.722057
5468.81    74.947678    15.267367
5469.42    68.415588    18.890265
5470.04    65.083199    19.527653
5470.66    72.891998    12.542991
5471.27    63.355862    11.318121
5471.89    67.780876    14.276647
5472.50    72.883850    17.967402
5473.12    58.636402    19.966261
5473.73    52.194645    18.733887
5474.35    66.519615    15.021876
5474.96    79.843033    11.879481
5475.58    62.976456    12.351336
5476.19    51.932316    14.546688
5476.81    53.683228    16.373425
5477.43    57.954014    16.239380
5478.04    67.431862    13.369980
5478.66    62.563545    11.605304
5479.27    50.929768    12.022769
5479.89    62.060238    12.428783
5480.50    72.446129    14.988341
5481.12    72.304138    15.442822
5481.73    66.988770    11.382373
5482.35    61.253571    10.865391
5482.96    68.927544    10.259897
5483.58    78.894424     9.057037
5484.20    65.112045    13.004769
5484.81    56.924980    18.257769
5485.43    57.945698    19.824259
5486.04    56.081120    16.619930
5486.66    58.499706    13.096358
5487.27    67.753059     9.140702
5487.89    73.936089     8.113049
5488.50    66.306122    14.927534
5489.12    69.274628    17.480526
5489.73    76.157806    15.847577
5490.35    69.368607    16.133842
5490.96    65.008751    14.487917
5491.58    65.419487    17.295250
5492.20    67.016594    23.013784
5492.81    68.968475    19.773556
5493.43    71.681908    17.159616
5494.04    69.823128    18.214235
5494.66    64.361496    17.640682
5495.27    74.978531    13.152292
5495.89    82.143364    11.018139
5496.50    72.202728    13.946829
5497.12    63.075474    15.935461
5497.73    63.875835    15.304914
5498.35    69.794083    12.373915
5498.97    71.847870     9.237207
5499.58    73.122269     9.793029
5500.20    80.960312     9.096534
5500.81    86.368240     7.823812
5501.43    68.642479    15.857473
5502.04    65.911995    19.252003
5502.66    76.326965    14.208749
5503.27    68.412285    11.343628
5503.89    64.094437    17.007017
5504.50    67.124634    21.133928
5505.12    66.528725    17.289276
5505.74    57.151508    15.816021
5506.35    61.029942    16.083593
5506.97    69.811951    14.713593
5507.58    57.475952    11.041359
5508.20    52.389557     8.815230
5508.81    51.843285    13.254259
5509.43    50.701641    20.790884
5510.04    70.982376    17.149002
5510.66    74.401184    16.069916
5511.27    59.667706    20.013891
5511.89    67.110344    15.265085
5512.51    68.919411     9.991711
5513.12    56.116707     9.214555
5513.74    43.700165    11.578815
5514.35    47.840389    13.688282
5514.97    68.378647    13.707730
5515.58    85.092293    13.008512
5516.20    76.642181    13.629786
5516.81    73.051445    10.200685
5517.43    75.719185     8.509474
5518.04    69.932281    13.598801
5518.66    68.129997    11.627245
5519.28    64.541306    11.036432
5519.89    59.957729    15.961611
5520.51    68.001007    15.407140
5521.12    67.056145    19.637745
5521.74    62.443081    22.318256
5522.35    72.685707    13.227712
5522.97    75.782562    14.808963
5523.58    58.648506    21.644258
5524.20    38.259056    21.231493
5524.81    50.352566    16.605209
5525.43    62.978954    14.750488
5526.04    63.161758    16.120132
5526.66    67.105736    15.670777
5527.28    67.810432    12.812281
5527.89    65.280373    12.671576
5528.51    61.711269    16.695469
5529.12    54.171799    16.958546
5529.74    53.162785    15.308074
5530.35    61.629379    15.039609
5530.97    69.306091    16.399294
5531.58    67.728394    17.915380
5532.20    63.625256    17.689825
5532.81    64.880775    16.071850
5533.43    63.451668    16.801294
5534.05    59.110920    16.255753
5534.66    60.076172    15.014686
5535.28    71.781586    18.518089
5535.89    70.246193    16.901110
5536.51    59.799656    14.202915
5537.12    61.348640    18.466589
5537.74    69.902878    17.562012
5538.35    74.626427    16.345432
5538.97    74.847397    18.955788
5539.58    80.064468    17.037218
5540.20    75.179176    12.647962
5540.82    69.531090    11.152006
5541.43    81.213333    14.303646
5542.05    78.931351    14.998557
5542.66    74.858009    13.751598
5543.28    78.856300    15.480827
5543.89    60.742416    21.537567
5544.51    60.421677    21.479454
5545.12    78.421486    15.762175
5545.74    71.267914    15.132129
5546.35    72.415787    13.539843
5546.97    75.815865    13.783994
5547.59    65.479919    17.983015
5548.20    72.481720    14.043680
5548.82    79.740509    13.264068
5549.43    69.963943    19.006317
5550.05    55.964199    17.286869
5550.66    57.750538    15.528885
5551.28    66.706932    14.487498
5551.89    65.737053    11.610493
5552.51    70.054848    17.162144
5553.12    63.776985    20.853590
5553.74    48.103878    16.220985
5554.35    61.198719    15.700092
5554.97    70.482994    15.451284
5555.59    59.432526    15.223619
5556.20    50.207726    18.648943
5556.82    65.390152    17.150675
5557.43    72.815369    15.125405
5558.05    55.589638    19.261303
5558.66    67.740440    23.566950
5559.28    77.212029    20.112253
5559.89    65.617172    13.954552
5560.51    59.966244    18.429422
5561.12    53.024769    23.639299
5561.74    52.619122    23.599306
5562.36    66.758644    19.913960
5562.97    71.048714    15.786784
5563.59    70.172791    13.438439
5564.20    66.462654    15.769613
5564.82    49.929688    23.928745
5565.43    60.230103    24.925928
5566.05    80.486298    22.165615
5566.66    66.164192    27.113653
5567.28    60.402180    26.510166
5567.89    60.734039    21.865080
5568.51    57.946480    20.872540
5569.13    77.108902    22.727449
5569.74    80.284164    22.009684
5570.36    61.222698    20.023602
5570.97    59.265091    22.498861
5571.59    68.366013    21.971613
5572.20    79.448151    21.588579
5572.82    85.484810    38.591476
5573.43    76.288864    98.591263
5574.05    61.819286    216.704178
5574.66    54.073738    363.992249
5575.28    52.759430    474.823425
5575.90    46.603371    545.743835
5576.51    56.268112    590.328857
5577.13    103.815521    606.599792
5577.74    139.585083    562.796082
5578.36    120.570930    510.161865
5578.97    69.645279    484.696686
5579.59    73.812553    434.954956
5580.20    79.306969    393.608887
5580.82    71.629570    368.995178
5581.43    98.032394    325.972595
5582.05    102.425049    280.149231
5582.66    86.331589    236.812622
5583.28    81.191452    189.426529
5583.90    71.817757    138.566544
5584.51    71.358566    93.895859
5585.13    75.220428    64.448730
5585.74    54.397820    50.500614
5586.36    54.765007    39.312756
5586.97    72.117584    28.940069
5587.59    63.959064    25.895744
5588.20    46.399525    26.830555
5588.82    44.308319    24.465801
5589.43    58.917076    19.140268
5590.05    60.723312    22.006037
5590.67    59.115417    23.793787
5591.28    59.875031    19.758965
5591.90    57.527985    16.159294
5592.51    70.827232    13.311246
5593.13    73.844086    16.785799
5593.74    48.444744    26.281868
5594.36    53.531746    23.420982
5594.97    58.787437    17.954880
5595.59    45.140724    18.970579
5596.20    54.413769    18.709730
5596.82    64.647652    20.594990
5597.44    63.720398    23.030989
5598.05    62.686562    20.304783
5598.67    65.261887    16.066694
5599.28    70.710655    15.479947
5599.90    71.904823    19.473021
5600.51    59.536385    22.482737
5601.13    57.010101    22.835064
5601.74    71.538864    20.900410
5602.36    80.449310    17.108200
5602.97    70.112289    11.209796
5603.59    55.292179    11.056172
5604.21    58.837563    19.240536
5604.82    76.054413    16.953262
5605.44    79.780426    14.632340
5606.05    64.669212    19.847511
5606.67    61.862492    18.068470
5607.28    66.111450    14.734216
5607.90    65.517715    16.449659
5608.51    57.991821    21.929312
5609.13    54.606236    22.555769
5609.74    56.750774    17.316378
5610.36    56.836166    12.921543
5610.97    48.377632    17.221531
5611.59    48.689098    19.977871
5612.21    63.065781    14.970988
5612.82    72.469856    11.057481
5613.44    66.220779    20.608374
5614.05    53.384773    31.584955
5614.67    51.859882    26.123716
5615.28    64.328438    19.919262
5615.90    68.644424    17.243818
5616.51    60.031048    13.568879
5617.13    69.230751     7.189448
5617.74    72.457474    10.916847
5618.36    55.617683    21.396278
5618.98    38.827568    20.861235
5619.59    50.910065    15.696511
5620.21    70.040886    14.331308
5620.82    66.877625    18.919422
5621.44    67.134094    23.188215
5622.05    71.160820    21.312145
5622.67    72.914764    17.004353
5623.28    73.744720    21.044241
5623.90    60.342861    22.995609
5624.51    46.729462    20.895090
5625.13    57.454651    21.273987
5625.75    68.807945    18.735695
5626.36    67.107071    17.286350
5626.98    58.533180    19.913532
5627.59    60.209984    18.478607
5628.21    61.161430    21.899517
5628.82    62.163715    26.960745
5629.44    76.392624    18.000191
5630.05    66.504822    15.501830
5630.67    59.747074    17.571716
5631.28    92.841904    11.563437
5631.90    92.798492    14.393184
5632.52    75.251045    17.932903
5633.13    72.382965    14.176159
5633.75    63.944935    15.528524
5634.36    59.398933    17.401407
5634.98    65.606323    17.011343
5635.59    73.461136    18.296637
5636.21    70.136017    20.180771
5636.82    59.959381    21.039011
5637.44    56.327694    19.644651
5638.05    62.918449    16.146317
5638.67    60.438419    20.086174
5639.29    51.820847    27.975693
5639.90    68.544594    20.400549
5640.52    76.594048    10.965110
5641.13    65.691887    11.641593
5641.75    60.941872    19.004665
5642.36    73.422279    17.693661
5642.98    79.908920    13.772069
5643.59    65.782364    16.604445
5644.21    60.559139    17.338676
5644.82    55.460571    17.133486
5645.44    50.018974    18.002438
5646.05    60.418495    18.027109
5646.67    52.117851    18.150200
5647.29    44.878189    17.821110
5647.90    71.558395    15.704990
5648.52    71.694427    13.394429
5649.13    61.256615    15.394788
5649.75    70.782684    19.935602
5650.36    77.995071    16.985008
5650.98    75.851837    17.890532
5651.59    66.454956    23.054827
5652.21    57.084885    19.582991
5652.82    63.045506    17.404951
5653.44    74.318810    17.924143
5654.06    73.778931    16.329695
5654.67    70.267517    15.800688
5655.29    62.131409    18.230732
5655.90    51.394043    21.848225
5656.52    51.930916    22.153587
5657.13    61.283649    19.326838
5657.75    63.267406    19.375698
5658.36    49.503124    25.982893
5658.98    55.501778    24.646591
5659.59    64.637062    19.261761
5660.21    55.894821    18.426495
5660.83    68.022552    14.179311
5661.44    74.879272    14.581697
5662.06    65.052887    20.907549
5662.67    72.590622    19.764870
5663.29    71.013779    16.482887
5663.90    63.149731    14.793888
5664.52    71.973511    13.740151
5665.13    66.705498    15.834818
5665.75    56.974781    16.626287
5666.36    61.249134    16.220945
5666.98    63.993774    26.047174
5667.60    66.720253    28.614664
5668.21    73.056213    18.935816
5668.83    77.969917    15.990605
5669.44    71.446671    19.482410
5670.06    62.387512    21.962677
5670.67    67.060730    18.381159
5671.29    78.896759    13.851303
5671.90    79.944832    15.623728
5672.52    64.763710    21.781710
5673.13    52.940125    19.150030
5673.75    52.068218    17.057531
5674.36    60.452751    20.106888
5674.98    69.596703    21.055059
5675.60    65.088501    21.113398
5676.21    54.666107    23.935904
5676.83    54.737144    28.762871
5677.44    60.978905    26.507404
5678.06    57.838688    26.053177
5678.67    51.372341    29.245111
5679.29    71.340446    20.698454
5679.90    76.388657    20.529524
5680.52    63.752209    26.922785
5681.13    68.942810    18.849483
5681.75    55.711323    19.825890
5682.37    43.731735    26.690277
5682.98    55.679710    25.205553
5683.60    35.319679    26.977612
5684.21    28.543169    31.626741
5684.83    63.384899    32.188286
5685.44    83.181595    25.779160
5686.06    76.861954    25.233305
5686.67    63.186176    27.790585
5687.29    64.878212    22.424461
5687.90    75.743484    26.284908
5688.52    79.135384    32.455906
5689.14    70.812302    29.415565
5689.75    71.158501    30.165819
5690.37    67.591911    35.038261
5690.98    59.002861    34.172436
5691.60    67.299950    20.398884
5692.21    70.723648    16.472914
5692.83    66.969368    25.087976
5693.44    69.982651    30.299423
5694.06    65.704414    31.856447
5694.67    58.819046    33.885937
5695.29    59.518669    36.911121
5695.91    63.516113    34.596558
5696.52    67.637764    27.785873
5697.14    67.974968    22.995552
5697.75    61.264778    26.160484
5698.37    54.658623    29.159060
5698.98    53.141060    27.475609
5699.60    55.014465    23.653566
5700.21    52.980595    23.150465
5700.83    52.972363    28.041428
5701.44    60.093330    33.043312
5702.06    65.566925    28.315840
5702.67    61.976864    26.843109
5703.29    55.985012    28.885574
5703.91    60.610397    20.019999
5704.52    60.527576    16.417204
5705.14    58.391644    19.333878
5705.75    65.860291    19.121599
5706.37    72.759712    19.227600
5706.98    73.483780    18.347443
5707.60    70.223686    16.877642
5708.21    69.580421    20.506355
5708.83    70.174904    21.449612
5709.44    67.704346    16.698605
5710.06    61.692886    13.344765
5710.68    63.831890    18.044018
5711.29    72.802200    23.303469
5711.91    78.019814    20.025274
5712.52    74.383057    16.741810
5713.14    68.145493    18.065584
5713.75    64.288185    21.837254
5714.37    59.193790    22.251730
5714.98    52.856098    22.197807
5715.60    56.060680    21.839104
5716.21    76.402161    18.240095
5716.83    84.846100    15.807657
5717.45    81.375725    17.975746
5718.06    77.838997    22.634487
5718.68    64.821877    21.235991
5719.29    64.337074    16.078529
5719.91    78.705727    13.031584
5720.52    72.461342    14.791457
5721.14    57.548504    19.970716
5721.75    48.438129    24.211107
5722.37    48.400227    23.729673
5722.98    59.801632    21.513750
5723.60    66.998337    21.306755
5724.22    58.700317    23.006401
5724.83    52.055511    21.185350
5725.45    51.153500    20.245043
5726.06    53.883820    23.863220
5726.68    57.844982    27.728846
5727.29    55.741730    22.968639
5727.91    50.670715    16.947449
5728.52    50.820393    21.318272
5729.14    50.615208    18.941679
5729.75    53.744972    11.282311
5730.37    64.216354     9.536116
5730.98    74.261894    14.966204
5731.60    79.482948    18.570919
5732.22    81.971596    17.011156
5732.83    86.036301    16.753033
5733.45    82.673752    17.212017
5734.06    75.353821    16.885752
5734.68    75.717308    16.528627
5735.29    81.132263    19.388445
5735.91    84.086853    18.814165
5736.52    77.030304    13.219807
5737.14    58.198360    17.134823
5737.75    45.915031    27.883041
5738.37    51.138275    32.967209
5738.99    66.048866    23.507029
5739.60    77.900185    15.577361
5740.22    80.912155    15.152819
5740.83    76.763145    16.064903
5741.45    69.322540    15.004282
5742.06    57.979179    15.892051
5742.68    51.992638    19.782137
5743.29    70.860909    19.318417
5743.91    77.171768    19.990101
5744.52    60.564960    21.971994
5745.14    54.112011    18.676502
5745.76    54.473793    19.566565
5746.37    57.984291    23.348423
5746.99    66.324272    21.946608
5747.60    76.839539    17.906113
5748.22    74.904877    17.818539
5748.83    61.631702    20.224857
5749.45    63.693089    14.030692
5750.06    64.565590    13.998064
5750.68    58.915367    22.287457
5751.29    63.069370    23.227627
5751.91    70.319016    19.351700
5752.53    74.473434    15.354172
5753.14    71.538010    13.854977
5753.76    56.295589    15.450816
5754.37    49.448330    15.427045
5754.99    56.831181    14.702625
5755.60    51.683033    21.996473
5756.22    50.459015    24.879295
5756.83    53.754250    21.959555
5757.45    45.392342    23.867722
5758.06    52.821899    21.619978
5758.68    66.432518    17.638353
5759.30    63.936676    19.339684
5759.91    62.489727    22.261688
5760.53    67.206596    24.987381
5761.14    71.076035    25.217535
5761.76    66.214714    18.983664
5762.37    67.730652    14.611688
5762.99    81.392166    13.876901
5763.60    93.516090    11.968028
5764.22    82.865990    14.105675
5764.83    67.095894    19.056215
5765.45    68.492020    21.830490
5766.06    68.787987    21.804785
5766.68    75.388252    22.806248
5767.30    86.872025    24.987278
5767.91    80.512886    23.199614
5768.53    73.855255    21.498388
5769.14    67.623459    24.631611
5769.76    53.017025    31.717699
5770.37    65.601410    32.279285
5770.99    78.623901    28.026560
5771.60    64.338371    24.708822
5772.22    68.212242    20.165142
5772.83    68.941376    19.898766
5773.45    55.174538    23.941736
5774.07    59.080261    23.292898
5774.68    68.548561    20.621454
5775.30    70.826920    20.146626
5775.91    64.572517    22.950615
5776.53    51.898739    25.874187
5777.14    55.276257    25.333521
5777.76    76.642960    20.777714
5778.37    70.207367    16.696770
5778.99    60.882462    16.585150
5779.60    65.981392    19.974754
5780.22    62.575352    23.025166
5780.84    54.333179    24.988134
5781.45    48.457207    26.124292
5782.07    47.993801    26.313612
5782.68    53.363094    24.201136
5783.30    59.360676    19.347294
5783.91    64.006622    15.801262
5784.53    73.061485    21.079430
5785.14    74.837219    23.913317
5785.76    63.827324    19.959003
5786.37    51.104275    19.839516
5786.99    51.220093    27.102524
5787.61    60.284969    33.241211
5788.22    65.756882    29.445885
5788.84    70.327766    25.714298
5789.45    67.802414    28.852631
5790.07    57.793659    33.312607
5790.68    56.827438    24.774733
5791.30    66.135216    22.257999
5791.91    72.961952    29.085646
5792.53    64.974869    25.149725
5793.14    61.669170    18.033482
5793.76    64.036911    17.739056
5794.37    62.069717    23.605753
5794.99    63.949932    20.508583
5795.61    61.962055    17.069407
5796.22    52.638710    21.598017
5796.84    50.655342    23.373756
5797.45    53.401932    22.524866
5798.07    57.264538    22.004856
5798.68    62.226944    23.074522
5799.30    62.169506    25.892735
5799.91    62.935013    25.143507
5800.53    70.684975    18.243435
5801.14    72.697876    15.830472
5801.76    67.914009    19.996059
5802.38    62.284725    24.039738
5802.99    61.749527    19.796473
5803.61    70.724617    18.812710
5804.22    77.891098    22.038105
5804.84    70.560928    18.754015
5805.45    76.463509    14.916513
5806.07    81.789513    18.946417
5806.68    63.318100    29.069170
5807.30    46.889534    27.386171
5807.91    47.613293    21.504265
5808.53    58.633259    21.862301
5809.15    59.442799    24.721945
5809.76    57.551182    23.594395
5810.38    60.479858    19.756939
5810.99    65.899765    18.623905
5811.61    66.824905    15.760550
5812.22    61.018581    17.659609
5812.84    50.911858    28.381275
5813.45    42.185364    33.001057
5814.07    47.683743    28.135889
5814.68    62.735359    20.161484
5815.30    63.510094    18.135160
5815.92    58.555504    20.719183
5816.53    58.360203    23.103645
5817.15    64.544350    21.862957
5817.76    72.208290    19.035591
5818.38    74.853424    19.975729
5818.99    69.353821    24.698545
5819.61    60.996754    23.237679
5820.22    65.334549    20.065981
5820.84    75.994926    19.005682
5821.45    67.407921    17.853628
5822.07    61.830200    22.951384
5822.68    66.815643    26.658716
5823.30    70.605865    19.394018
5823.92    70.617500    18.811148
5824.53    68.158859    18.910070
5825.15    64.577141    13.190385
5825.76    59.558662    16.843256
5826.38    55.662411    20.669382
5826.99    59.231129    18.968597
5827.61    72.723709    19.253410
5828.22    74.521210    21.281183
5828.84    64.231529    21.819796
5829.45    58.113335    20.047247
5830.07    60.863300    21.598795
5830.69    64.530815    22.891790
5831.30    65.575233    21.098192
5831.92    72.802742    21.274664
5832.53    76.235359    19.659771
5833.15    70.604515    16.976795
5833.76    63.341713    18.186485
5834.38    62.504608    15.706006
5834.99    65.383308    16.221518
5835.61    64.091621    26.394230
5836.22    59.200546    27.931469
5836.84    72.263733    19.399939
5837.46    93.052940    13.774504
5838.07    70.654846    23.652697
5838.69    49.673996    27.644646
5839.30    57.168941    21.706224
5839.92    69.436935    23.116894
5840.53    58.635658    28.728025
5841.15    48.720215    27.417437
5841.76    64.516197    18.514473
5842.38    67.831604    22.520170
5842.99    60.078167    25.011126
5843.61    56.934933    17.230476
5844.23    59.962921    16.601858
5844.84    50.070442    22.767929
5845.46    37.825638    28.323227
5846.07    48.492119    28.314634
5846.69    59.122356    27.946001
5847.30    59.105389    27.818445
5847.92    53.674850    27.673334
5848.53    52.381748    30.950031
5849.15    58.324909    28.519981
5849.76    66.956169    20.039845
5850.38    70.444023    18.721373
5850.99    71.485649    22.207457
5851.61    66.481155    25.265509
5852.23    55.941772    25.863575
5852.84    65.416603    26.636858
5853.46    73.521461    24.888842
5854.07    62.097878    20.311077
5854.69    60.833542    20.563095
5855.30    66.180916    23.011959
5855.92    65.852074    26.137949
5856.53    56.523972    32.456188
5857.15    46.379955    37.762344
5857.76    47.671139    35.828110
5858.38    65.633972    26.084972
5859.00    85.629410    20.502014
5859.61    85.315842    20.122284
5860.23    67.852486    20.113464
5860.84    67.844551    18.636175
5861.46    62.841923    23.950754
5862.07    55.382053    29.941172
5862.69    73.716667    22.979261
5863.30    83.115746    22.056705
5863.92    76.041801    26.519510
5864.53    68.156242    26.684183
5865.15    64.939766    30.457739
5865.77    70.017441    33.299416
5866.38    78.755997    30.233561
5867.00    78.371284    25.331165
5867.61    69.746407    24.020540
5868.23    60.221107    26.248890
5868.84    55.845615    27.818291
5869.46    53.205101    27.963945
5870.07    51.955139    28.189428
5870.69    54.917957    27.630934
5871.30    63.832443    21.683151
5871.92    71.270615    21.647064
5872.54    72.011284    26.010912
5873.15    68.272713    18.690180
5873.77    62.999443    20.305212
5874.38    61.203598    27.125420
5875.00    62.989002    21.439308
5875.61    55.215672    19.889692
5876.23    56.247997    20.623419
5876.84    71.415817    18.057819
5877.46    63.772247    20.234226
5878.07    53.055843    22.519617
5878.69    58.451015    20.888220
5879.31    68.122299    18.212746
5879.92    52.491447    19.210983
5880.54    43.351593    21.016470
5881.15    73.093048    18.736069
5881.77    77.680466    16.371325
5882.38    68.227295    20.606216
5883.00    69.899208    27.021128
5883.61    68.190788    21.000128
5884.23    63.668007    21.832605
5884.84    57.263378    35.209618
5885.46    53.462433    46.906559
5886.07    78.123962    56.293442
5886.69    95.591797    78.978783
5887.31    76.414085    116.140160
5887.92    75.735092    131.577682
5888.54    74.086235    141.779175
5889.15    57.226532    157.806793
5889.77    52.682507    159.244720
5890.38    42.225647    153.813217
5891.00    41.486954    140.012131
5891.61    72.378014    114.880554
5892.23    75.158714    107.887291
5892.84    63.570442    120.960960
5893.46    63.119999    135.992020
5894.08    46.292046    136.691086
5894.69    48.553967    129.908432
5895.31    70.345657    125.964531
5895.92    64.025856    123.802780
5896.54    51.315136    103.881241
5897.15    54.194473    76.930809
5897.77    70.405380    64.760468
5898.38    73.250336    56.974934
5899.00    58.479134    49.412628
5899.61    51.862381    39.905727
5900.23    82.209480    25.947075
5900.85    73.387634    25.783169
5901.46    34.440231    34.232018
5902.08    45.869682    29.271950
5902.69    60.021790    25.008495
5903.31    61.204132    24.972277
5903.92    64.143013    24.179737
5904.54    69.460243    23.648275
5905.15    67.769020    27.109024
5905.77    59.069935    31.005098
5906.38    56.299698    26.309534
5907.00    58.919437    22.918467
5907.62    63.784836    22.870140
5908.23    66.713600    20.656639
5908.85    60.866585    18.484655
5909.46    61.290596    14.165056
5910.08    72.483719    10.651257
5910.69    69.904579    19.370066
5911.31    73.017532    24.754623
5911.92    82.011505    20.793184
5912.54    72.372185    20.175680
5913.15    64.473328    27.590078
5913.77    65.511566    33.120567
5914.38    65.300415    29.414259
5915.00    55.364681    30.974695
5915.62    54.432007    32.875343
5916.23    66.669365    29.184629
5916.85    66.849220    26.143353
5917.46    64.165161    26.917433
5918.08    61.221127    26.529448
5918.69    53.034698    21.161407
5919.31    54.189072    25.547710
5919.92    52.742088    31.557400
5920.54    42.263397    27.751986
5921.15    49.225452    23.782030
5921.77    50.789532    25.773886
5922.39    48.314838    28.976671
5923.00    72.689468    23.676971
5923.62    79.513832    18.320652
5924.23    70.250397    16.927111
5924.85    71.099281    19.353371
5925.46    59.819473    28.797100
5926.08    58.044720    30.286631
5926.69    72.672577    21.273357
5927.31    65.114510    23.712669
5927.92    56.806362    25.943628
5928.54    62.997013    21.514954
5929.16    70.342659    18.640245
5929.77    58.371376    22.129135
5930.39    51.446323    26.741194
5931.00    64.605545    28.445053
5931.62    53.825844    33.908264
5932.23    46.706955    35.376911
5932.85    60.142670    30.964005
5933.46    67.029739    29.642340
5934.08    64.755226    26.896091
5934.69    56.103222    25.249403
5935.31    49.593864    29.260208
5935.93    63.556149    30.350283
5936.54    66.700775    32.427963
5937.16    51.121635    35.237324
5937.77    65.355095    26.861732
5938.39    71.935730    22.515068
5939.00    55.416851    25.051739
5939.62    45.747463    22.748432
5940.23    56.536865    22.054840
5940.85    64.426178    23.116539
5941.46    53.877262    22.951517
5942.08    56.129230    24.251650
5942.69    52.637104    27.606560
5943.31    43.027817    28.979166
5943.93    58.301903    24.197596
5944.54    64.074005    24.178474
5945.16    57.425331    28.568024
5945.77    59.411430    28.115921
5946.39    58.951931    21.933847
5947.00    50.005871    21.363079
5947.62    45.307186    27.829252
5948.23    63.816639    25.633776
5948.85    57.310204    27.563574
5949.46    38.072964    31.835285
5950.08    60.405571    24.253590
5950.70    72.824242    21.275688
5951.31    64.080009    26.922810
5951.93    56.949318    32.745888
5952.54    62.691944    30.911736
5953.16    65.235504    28.779703
5953.77    56.809681    30.008787
5954.39    50.997314    28.847799
5955.00    57.701412    26.884903
5955.62    62.249252    25.910023
5956.23    53.295616    24.768026
5956.85    59.901070    20.419554
5957.47    52.287815    24.374722
5958.08    29.087206    33.959423
5958.70    50.497444    25.918304
5959.31    67.076698    22.586962
5959.93    66.812271    27.043110
5960.54    80.697235    21.883408
5961.16    78.444977    17.878635
5961.77    60.863457    20.250237
5962.39    53.083000    24.008129
5963.00    69.445946    20.406080
5963.62    70.632637    17.676428
5964.24    58.080093    21.235283
5964.85    74.179871    25.651243
5965.47    76.035507    24.154345
5966.08    58.151100    20.613958
5966.70    51.194447    20.316395
5967.31    69.613510    17.112421
5967.93    75.305199    17.036312
5968.54    55.358429    23.826065
5969.16    49.585777    29.500473
5969.77    53.371723    24.737684
5970.39    56.187542    19.077297
5971.00    54.954605    26.603327
5971.62    50.802711    33.048126
5972.24    51.174610    31.722544
5972.85    55.102955    24.704552
5973.47    49.235191    17.387381
5974.08    48.585857    14.073899
5974.70    55.379967    17.625521
5975.31    57.425583    25.309963
5975.93    65.750397    22.496548
5976.54    74.104309    17.991335
5977.16    71.134842    22.503763
5977.77    63.286987    22.195665
5978.39    64.385696    18.546520
5979.01    71.026505    20.173882
5979.62    64.891136    29.085022
5980.24    56.519535    25.094877
5980.85    60.255520    14.873980
5981.47    73.283279    16.773705
5982.08    66.584198    22.337975
5982.70    57.700996    23.728834
5983.31    56.302505    21.991644
5983.93    41.003456    24.954418
5984.54    40.765278    28.938322
5985.16    58.399326    28.521990
5985.78    68.485313    22.673212
5986.39    66.352730    17.884892
5987.01    62.572845    19.330793
5987.62    64.749229    24.722242
5988.24    65.814575    24.787546
5988.85    60.089848    23.940573
5989.47    50.215473    23.880751
5990.08    46.303238    21.037935
5990.70    56.832115    18.455845
5991.31    70.837814    18.178883
5991.93    74.984573    19.755674
5992.55    73.828445    21.217896
5993.16    72.626526    22.771532
5993.78    64.335686    25.101431
5994.39    42.017006    28.034990
5995.01    43.334290    30.006962
5995.62    59.251198    28.083071
5996.24    62.314407    23.333797
5996.85    69.289238    25.041370
5997.47    72.787010    29.535652
5998.08    66.098007    31.975996
5998.70    60.866608    32.966694
5999.32    67.551704    28.877275
5999.93    72.289650    24.886326
6000.55    63.121193    26.325523
6001.16    72.735069    21.526081
6001.78    80.718079    17.953959
6002.39    69.590340    23.547081
6003.01    64.669312    30.596180
6003.62    62.660152    31.069445
6004.24    62.377235    25.171543
6004.85    66.343994    19.746534
6005.47    60.514881    18.935354
6006.08    58.466862    18.387789
6006.70    66.840698    18.385817
6007.32    58.417328    28.981857
6007.93    40.027172    32.279060
6008.55    37.101631    25.618084
6009.16    60.733009    24.858925
6009.78    64.098679    24.329596
6010.39    49.629601    24.488420
6011.01    46.910446    27.670532
6011.62    60.556576    27.967508
6012.24    70.399536    23.355982
6012.85    68.913231    18.961233
6013.47    68.279327    21.247068
6014.09    66.499626    21.475374
6014.70    61.647961    21.599600
6015.32    57.759655    24.370655
6015.93    63.028477    17.993465
6016.55    65.534798    16.195927
6017.16    58.922958    22.017166
6017.78    51.980721    19.280741
6018.39    44.299252    22.456348
6019.01    45.977226    25.229115
6019.62    61.008835    17.349777
6020.24    62.412659    23.193523
6020.86    58.351414    27.344343
6021.47    61.877338    20.093140
6022.09    68.927910    20.505104
6022.70    79.256676    19.463783
6023.32    85.007904    17.118944
6023.93    77.787834    19.944653
6024.55    65.611649    17.130857
6025.16    54.272377    17.747929
6025.78    47.178864    24.863565
6026.39    49.470024    21.519163
6027.01    71.956017    14.643927
6027.63    86.116112    16.035713
6028.24    62.260376    25.883999
6028.86    55.758682    23.487133
6029.47    61.768803    16.751699
6030.09    57.432972    18.668312
6030.70    53.279396    23.357401
6031.32    54.238270    25.671680
6031.93    59.785770    23.521465
6032.55    64.968262    19.846813
6033.16    61.735943    23.733643
6033.78    61.550896    26.788298
6034.39    72.866173    21.529589
6035.01    80.640343    17.793665
6035.63    72.748329    16.556810
6036.24    63.011124    17.176634
6036.86    72.423653    19.544170
6037.47    73.823448    20.246052
6038.09    58.230083    23.847446
6038.70    45.478104    28.384411
6039.32    63.820522    18.155336
6039.93    72.829514    12.596456
6040.55    66.154961    17.233961
6041.16    77.363388    17.009499
6041.78    77.706207    18.806160
6042.40    71.387825    21.211214
6043.01    75.331261    20.119251
6043.63    77.650505    20.034286
6044.24    66.966110    19.483961
6044.86    54.823326    19.092957
6045.47    60.730404    21.587296
6046.09    58.195126    21.045622
6046.70    53.196434    18.479120
6047.32    58.720047    17.218254
6047.93    55.419235    15.292738
6048.55    53.643887    15.764890
6049.17    60.472771    16.919891
6049.78    65.945557    13.660525
6050.40    62.841068    13.964354
6051.01    56.932194    16.282290
6051.63    53.782188    16.705143
6052.24    46.334240    20.646921
6052.86    45.196239    23.996902
6053.47    50.084484    23.962868
6054.09    48.109840    23.241230
6054.70    51.066914    22.680517
6055.32    55.257133    23.360485
6055.94    52.443050    23.494297
6056.55    51.202168    17.545326
6057.17    53.109226    15.321855
6057.78    53.898296    20.287516
6058.40    50.062283    23.712936
6059.01    49.151981    23.327457
6059.63    55.200924    21.729977
6060.24    64.878174    21.149532
6060.86    69.032791    19.811518
6061.47    62.716862    21.378124
6062.09    51.474850    25.136999
6062.70    49.091869    24.510641
6063.32    62.830360    18.720104
6063.94    75.459930    14.719107
6064.55    71.128693    16.725376
6065.17    64.431732    17.509640
6065.78    66.232346    19.144157
6066.40    69.845375    18.650675
6067.01    63.007610    10.456717
6067.63    65.250557    11.326093
6068.24    64.627678    20.383406
6068.86    53.821003    23.605583
6069.47    67.295197    14.024279
6070.09    71.882263    10.676356
6070.71    58.318283    16.179012
6071.32    56.999260    13.954983
6071.94    54.319683    13.050378
6072.55    54.463764    15.896683
6073.17    63.340363    18.739491
6073.78    64.113228    20.206221
6074.40    63.114082    19.041231
6075.01    63.926514    15.653741
6075.63    62.016342    13.414684
6076.24    63.218681    18.166248
6076.86    53.538300    24.224699
6077.48    35.328621    25.051859
6078.09    47.607605    24.390413
6078.71    61.280682    23.446486
6079.32    60.931927    19.177280
6079.94    60.854675    11.534826
6080.55    55.536293    14.852755
6081.17    55.987202    18.965273
6081.78    62.270008    15.120680
6082.40    49.397472    17.033587
6083.01    44.641621    17.057861
6083.63    49.978794    15.111096
6084.25    42.384975    18.438519
6084.86    36.458038    18.216827
6085.48    40.651794    17.115070
6086.09    50.599903    19.831236
6086.71    56.099407    22.376009
6087.32    60.832436    19.653301
6087.94    59.787380    15.784575
6088.55    49.729462    16.316057
6089.17    53.202370    12.611581
6089.78    46.851536    12.109063
6090.40    30.008869    17.929855
6091.01    46.099003    18.884796
6091.63    53.405613    20.277096
6092.25    49.547905    20.438957
6092.86    58.247414    15.555505
6093.48    55.064217    15.581341
6094.09    55.805008    14.859105
6094.71    63.991226    10.970164
6095.32    52.502640    13.275797
6095.94    37.454155    21.714533
6096.55    33.227577    24.044191
6097.17    37.612148    15.705356
6097.78    37.407642    17.042213
6098.40    43.833073    18.194195
6099.02    56.442688    12.732041
6099.63    56.814278    11.593946
6100.25    51.116184    18.016998
6100.86    51.252144    21.838150
6101.48    59.262726    16.596029
6102.09    61.493980    14.264771
6102.71    57.657692    16.438101
6103.32    51.301468    19.153477
6103.94    45.590500    18.701048
6104.55    46.600002    15.568607
6105.17    53.583508    11.954799
6105.79    62.384735    10.037141
6106.40    69.404282    10.818007
6107.02    67.510681    13.798342
6107.63    58.670189    16.133593
6108.25    51.905922    15.919045
6108.86    50.313435    17.233356
6109.48    53.751690    17.744200
6110.09    57.966675    15.064388
6110.71    59.825836    11.885071
6111.32    75.345207    10.701050
6111.94    77.281685    15.798062
6112.56    48.120457    24.591494
6113.17    58.654930    20.124203
6113.79    66.590286    13.035200
6114.40    44.274063    14.135870
6115.02    37.164120    18.212362
6115.63    50.425095    18.601635
6116.25    62.147369    16.611925
6116.86    59.218147    15.306107
6117.48    61.348427    12.537232
6118.09    59.622421    15.958197
6118.71    53.836666    20.976782
6119.33    56.437691    16.033712
6119.94    55.563656    16.203278
6120.56    54.400139    17.557421
6121.17    56.127083    13.230024
6121.79    51.317066    11.767117
6122.40    55.013599    12.440611
6123.02    57.885227    14.524261
6123.63    43.902618    18.326271
6124.25    44.426792    20.109669
6124.86    49.792126    19.670839
6125.48    50.024708    17.986546
6126.09    59.190903    15.166031
6126.71    66.741127    12.362432
6127.33    67.924232    12.482732
6127.94    64.935181    14.993028
6128.56    56.729240    12.277980
6129.17    48.895695     8.982599
6129.79    45.952633    11.468188
6130.40    47.266857    18.195234
6131.02    49.810814    16.809887
6131.63    55.228802    14.108907
6132.25    61.798088    16.098499
6132.86    60.523727    11.976677
6133.48    58.302879    16.508741
6134.10    59.229549    21.315477
6134.71    60.130611     9.676291
6135.33    58.421257     9.973376
6135.94    56.538719    12.419252
6136.56    58.029396    10.027760
6137.17    62.815121    19.257587
6137.79    63.732670    21.504494
6138.40    58.177055    17.600752
6139.02    50.671944    18.873909
6139.63    49.808002    17.775312
6140.25    57.614822    14.293229
6140.87    61.532703    13.143797
6141.48    52.158806    15.911671
6142.10    61.474655    13.436049
6142.71    69.388680    11.071985
6143.33    59.250938    13.896373
6143.94    62.086128    14.450521
6144.56    58.817509    16.972980
6145.17    48.931911    17.241934
6145.79    50.696121    10.625350
6146.40    57.708668    11.956670
6147.02    56.930164    13.870905
6147.64    46.517849    14.222437
6148.25    39.936958    22.948273
6148.87    48.924465    24.338274
6149.48    61.381893    18.321821
6150.10    63.899345    13.440973
6150.71    65.292763     9.728371
6151.33    62.875553    12.779332
6151.94    54.536182    19.775158
6152.56    43.514671    22.013206
6153.17    35.305649    21.424448
6153.79    44.580055    21.001150
6154.40    60.011265    20.994581
6155.02    49.413338    19.523527
6155.64    53.720451    18.663315
6156.25    69.421768    19.222242
6156.87    65.729172    19.243042
6157.48    49.728645    16.599869
6158.10    46.604843    20.045076
6158.71    58.260605    24.937572
6159.33    62.403355    19.804070
6159.94    52.138290    21.120049
6160.56    43.776630    24.240677
6161.17    48.867664    20.099577
6161.79    56.599174    14.469955
6162.41    57.302559    16.437540
6163.02    56.515705    21.786034
6163.64    62.878883    21.413296
6164.25    68.918625    17.861387
6164.87    66.362694    14.803902
6165.48    59.614231    14.022608
6166.10    59.670635    15.334824
6166.71    59.911358    18.008236
6167.33    60.587341    18.818062
6167.94    59.188660    17.036274
6168.56    47.091141    16.667229
6169.18    41.520496    17.876425
6169.79    46.411308    20.880123
6170.41    53.009598    23.981419
6171.02    59.283211    21.098476
6171.64    63.922729    15.247845
6172.25    66.102402    10.628466
6172.87    66.640678     8.260246
6173.48    68.359169     8.057469
6174.10    64.162453     9.831906
6174.71    56.043598    11.978621
6175.33    61.506126    11.657645
6175.95    71.902939     9.921382
6176.56    64.218407    10.649372
6177.18    39.505264    15.350845
6177.79    45.542316    18.403360
6178.41    57.653908    16.185169
6179.02    55.492363    12.922245
6179.64    53.198223    15.208521
6180.25    59.401714    17.209738
6180.87    58.010864    16.431700
6181.48    45.004509    15.000150
6182.10    44.554367    15.376129
6182.71    56.191998    12.941151
6183.33    63.066570    11.155478
6183.95    55.932037    13.803822
6184.56    51.419716    13.603784
6185.18    57.470329    12.885169
6185.79    62.750061    12.924704
6186.41    54.624043    12.622573
6187.02    51.762600    15.752983
6187.64    51.094788    16.257359
6188.25    50.119965    11.868839
6188.87    56.389229    10.795425
6189.48    53.268299    16.349813
6190.10    53.213444    18.110237
6190.72    64.681389    10.499842
6191.33    60.936195     7.119679
6191.95    64.913673     7.161551
6192.56    71.470367     9.878071
6193.18    59.733192    15.347422
6193.79    56.659569    16.329277
6194.41    55.265522    13.592545
6195.02    53.378891    10.832697
6195.64    63.537598     9.936788
6196.25    67.088600    10.675698
6196.87    61.758911    12.991025
6197.49    52.254341    15.953537
6198.10    38.672646    17.200815
6198.72    37.726856    16.004259
6199.33    45.569767    15.039794
6199.95    49.503906    17.479570
6200.56    53.901234    22.103365
6201.18    51.049210    21.848585
6201.79    44.553532    18.881041
6202.41    47.418285    20.014879
6203.02    55.467960    17.270330
6203.64    59.796654     9.336930
6204.26    57.848576     6.249245
6204.87    55.347031    16.230696
6205.49    55.494339    15.034355
6206.10    59.888374     9.450244
6206.72    63.124462    11.944822
6207.33    54.542847    11.234097
6207.95    45.586067    16.264080
6208.56    47.756306    22.525658
6209.18    55.218143    20.332214
6209.79    46.445995    19.492687
6210.41    52.211014    17.393730
6211.02    68.799202    15.028302
6211.64    61.363251    18.128107
6212.26    54.688026    20.871525
6212.87    46.118420    20.441963
6213.49    35.865093    18.984406
6214.10    43.115288    18.426430
6214.72    58.922943    10.989432
6215.33    60.474758     7.741633
6215.95    49.078941    13.898918
6216.56    58.593010    11.768628
6217.18    67.294716    13.019114
6217.79    59.980015    17.556150
6218.41    46.830208    17.074024
6219.03    47.608353    17.040623
6219.64    53.728432    13.179884
6220.26    53.332134    10.305374
6220.87    49.348919    16.156292
6221.49    59.350975    16.467276
6222.10    70.169899    14.758777
6222.72    69.728638    14.919162
6223.33    63.638840    13.538477
6223.95    53.706669    17.871435
6224.56    52.732136    21.067408
6225.18    59.002441    16.021582
6225.80    51.197350     9.267025
6226.41    50.456631     8.594094
6227.03    48.263702    15.492197
6227.64    36.993336    21.992870
6228.26    48.718555    16.309927
6228.87    53.413364    11.237827
6229.49    47.770103    12.399126
6230.10    53.056252    14.610670
6230.72    55.995529    17.423143
6231.33    49.775101    20.473301
6231.95    41.324154    22.017658
6232.57    41.273357    21.700989
6233.18    45.171413    24.619211
6233.80    50.162086    25.573483
6234.41    54.154919    22.898111
6235.03    55.477402    22.924042
6235.64    57.656910    22.916889
6236.26    52.513317    27.858896
6236.87    41.023098    34.996853
6237.49    41.482166    28.287142
6238.10    45.100651    17.178974
6238.72    53.715218    14.754292
6239.34    65.767334    19.907112
6239.95    59.733601    17.200624
6240.57    50.839088    20.891201
6241.18    47.305634    25.747915
6241.80    44.316616    18.032701
6242.41    43.590103    13.491436
6243.03    51.586330    12.728897
6243.64    67.818047    13.212064
6244.26    79.291634    14.839881
6244.87    67.285950    14.859375
6245.49    48.515301    15.834747
6246.10    39.471882    18.161633
6246.72    37.220142    18.288372
6247.34    36.014889    16.948757
6247.95    34.393814    17.890074
6248.57    36.278294    18.883820
6249.18    42.993225    13.454882
6249.80    38.209641    10.914210
6250.41    50.053318     8.542410
6251.03    77.947235     5.978067
6251.64    63.252850    13.675182
6252.26    57.471695    15.916288
6252.87    66.644600    10.173862
6253.49    66.961128     7.800525
6254.11    68.505981    14.591717
6254.72    60.248322    13.416178
6255.34    49.662567    10.796690
6255.95    49.949951    20.103024
6256.57    48.697899    23.857128
6257.18    51.762657    21.033104
6257.80    54.608723    19.086037
6258.41    49.310989    21.663488
6259.03    52.255322    22.060572
6259.64    55.924206    19.497002
6260.26    54.817158    16.691057
6260.88    53.513409    15.921820
6261.49    50.272137    16.712400
6262.11    51.900757    16.837851
6262.72    56.044010    17.199715
6263.34    49.943050    19.218914
6263.95    37.116673    15.574504
6264.57    41.827991    12.739516
6265.18    60.749523    15.176259
6265.80    59.549988    17.799826
6266.41    50.424004    23.034569
6267.03    44.378265    21.972658
6267.65    45.147240    13.844799
6268.26    53.548584    12.926392
6268.88    63.844933    11.794999
6269.49    64.176544    11.576307
6270.11    52.064568    14.986912
6270.72    41.355820    16.011705
6271.34    37.024094    15.835058
6271.95    41.347397    12.212005
6272.57    51.639458     6.115939
6273.18    58.324070     6.784129
6273.80    57.563110     9.602217
6274.41    48.890820    11.478186
6275.03    39.242519    12.076388
6275.65    41.049385    10.112038
6276.26    40.337921    11.746607
6276.88    38.481834    15.740174
6277.49    45.266495    16.954647
6278.11    52.066654    16.925611
6278.72    58.965019    13.578251
6279.34    58.411621     9.368108
6279.95    47.714272     9.630012
6280.57    48.035351    13.514784
6281.18    47.259720    11.986548
6281.80    45.708786     7.620205
6282.42    54.712601     8.780978
6283.03    59.767952     9.989515
6283.65    52.868103    16.461235
6284.26    44.424366    24.981829
6284.88    46.643230    25.468569
6285.49    47.094479    21.713772
6286.11    54.274803    19.136642
6286.72    62.051666    19.047680
6287.34    54.489960    19.104881
6287.95    49.886841    17.924831
6288.57    50.575382    16.208662
6289.19    50.842926    16.221125
6289.80    49.097248    18.043617
6290.42    49.909946    16.124926
6291.03    48.653797    18.119164
6291.65    43.243282    21.930105
6292.26    41.610043    15.781581
6292.88    53.008911     8.514214
6293.49    51.634785    10.420551
6294.11    40.965923    14.886780
6294.72    49.417534     9.583828
6295.34    42.185566    12.030099
6295.96    35.865570    18.456280
6296.57    45.214367    22.501017
6297.19    49.620781    30.628202
6297.80    35.154236    50.329666
6298.42    28.642786    66.090530
6299.03    42.811394    75.486961
6299.65    57.367996    89.271759
6300.26    66.144356    82.399399
6300.88    62.609180    75.252701
6301.49    57.300102    70.114830
6302.11    66.613251    43.494083
6302.72    65.803993    35.233398
6303.34    60.365849    31.076563
6303.96    56.153088    19.183195
6304.57    48.052776    17.835232
6305.19    55.527981    17.330896
6305.80    63.844528    17.681864
6306.42    57.800453    21.510363
6307.03    47.657642    25.521976
6307.65    50.809925    25.785400
6308.26    50.903530    21.754444
6308.88    46.301746    16.487339
6309.49    55.490044    14.061908
6310.11    56.940395    14.495810
6310.73    57.118546    12.340050
6311.34    54.559052    11.540771
6311.96    39.789864    18.509132
6312.57    47.650734    14.905403
6313.19    50.642223     9.640303
6313.80    44.673264    10.017340
6314.42    59.777618     9.154766
6315.03    61.718231     8.931717
6315.65    55.667850     8.940089
6316.26    53.832172    10.533411
6316.88    50.471565    14.673580
6317.50    40.175079    13.932271
6318.11    44.453854    13.238622
6318.73    52.263390    15.314103
6319.34    37.593475    16.063940
6319.96    38.089016    15.452624
6320.57    43.661087    17.849447
6321.19    39.710297    19.766733
6321.80    32.570465    15.540303
6322.42    32.822254    13.765275
6323.03    41.258274    14.367250
6323.65    48.816471    13.563209
6324.27    47.487598    12.619308
6324.88    43.758057    18.993057
6325.50    46.936256    19.911537
6326.11    47.681805    15.334579
6326.73    38.392921    18.225136
6327.34    41.231438    28.395281
6327.96    45.880981    26.101044
6328.57    45.907654    16.299145
6329.19    45.963337    15.858900
6329.80    47.887070    18.316023
6330.42    54.776775    19.346228
6331.03    53.345730    18.790668
6331.65    41.152222    19.881319
6332.27    45.777493    24.299099
6332.88    51.910034    18.879566
6333.50    47.291462    14.247680
6334.11    37.980957    19.004866
6334.73    39.258507    15.091314
6335.34    54.489822    10.002889
6335.96    54.843319    11.413901
6336.57    38.823063    16.094925
6337.19    49.014816    14.987239
6337.80    56.704620    11.618200
6338.42    45.355034    11.748278
6339.04    32.921497    14.030692
6339.65    44.839828    12.378212
6340.27    58.015041    11.977880
6340.88    50.284733    11.435478
6341.50    35.409195    11.257495
6342.11    40.967297    14.072503
6342.73    40.953167    10.570821
6343.34    44.758888    10.262803
6343.96    46.347977    17.183018
6344.57    31.426304    20.423090
6345.19    43.152500    13.801634
6345.81    52.687054    11.086564
6346.42    43.720230    14.506298
6347.04    37.837105    13.403631
6347.65    44.526680     8.744059
6348.27    46.428410     9.701623
6348.88    45.984627    13.542521
6349.50    49.246868    13.044077
6350.11    38.313992    13.234800
6350.73    44.675869    16.017284
6351.34    56.166874    16.329311
6351.96    47.934639    11.977575
6352.58    39.115883    10.430655
6353.19    38.499889    13.900209
6353.81    37.848534    18.425966
6354.42    36.251968    20.008366
6355.04    45.071823    19.753918
6355.65    48.223961    21.956303
6356.27    43.654961    22.542532
6356.88    45.184471    17.000881
6357.50    58.046375    10.132824
6358.11    53.108837    15.002665
6358.73    43.565559    20.825130
6359.35    43.378216    19.444828
6359.96    46.577332    14.801414
6360.58    48.757847     9.429013
6361.19    44.954475    18.915497
6361.81    40.598232    29.615028
6362.42    41.065647    25.936184
6363.04    38.203278    34.417774
6363.65    40.567696    39.783504
6364.27    42.502880    34.752403
6364.88    42.086609    26.907244
6365.50    51.665039    21.622416
6366.11    37.967476    21.092215
6366.73    31.551193    19.931244
6367.35    46.516792    15.674824
6367.96    41.136597    12.705986
6368.58    42.380562     9.372210
6369.19    41.774666    10.517495
6369.81    37.239597    14.242511
6370.42    42.159122    13.171580
6371.04    34.129711    13.332660
6371.65    33.000183    14.669148
6372.27    36.180683    13.140326
6372.88    29.907450     9.110870
6373.50    40.056309     9.822307
6374.12    44.834030     8.447881
6374.73    41.164856     5.310388
6375.35    39.964310     6.048570
6375.96    35.787239    10.468150
6376.58    29.696270    15.217398
6377.19    31.230444    15.015206
6377.81    37.111698    11.893938
6378.42    32.924522    12.925649
6379.04    31.650442    11.892803
6379.65    37.794621    13.967935
6380.27    44.930779    16.897379
6380.89    43.854984    13.291161
6381.50    33.517353    13.335716
6382.12    33.313438    14.073861
6382.73    47.777828    10.434216
6383.35    55.170517     6.958378
6383.96    36.312531    13.448151
6384.58    39.419807    14.126185
6385.19    40.755650    14.345465
6385.81    23.602385    20.275444
6386.42    32.138241    19.744951
6387.04    33.167454    16.078636
6387.66    40.592716    12.218493
6388.27    50.547050     9.763247
6388.89    35.713844     9.127792
6389.50    30.824858     7.516838
6390.12    37.049206     7.007364
6390.73    37.649429     6.642864
6391.35    31.967012     5.012688
6391.96    40.940659     6.560849
6392.58    45.783424    11.931517
6393.19    45.036991    13.451147
6393.81    46.017014     9.823559
6394.42    44.603184     9.920474
6395.04    42.111870     9.140169
6395.66    46.186836     6.892389
6396.27    46.298046     6.104815
6396.89    30.368229     7.819653
6397.50    26.094042     8.526542
6398.12    35.976856     6.487835
6398.73    40.018402     6.937188
6399.35    31.974190    11.009983
6399.96    36.482265     9.045252
6400.58    49.273361     6.461120
6401.19    48.687878     8.573994
6401.81    35.994400    12.163040
6402.43    38.664551    10.523029
6403.04    55.018955     8.344094
6403.66    51.954750    11.642254
6404.27    37.212402    15.041462
6404.89    38.901443    13.003013
6405.50    36.683975    15.470962
6406.12    32.556320    14.435547
6406.73    32.822723    11.307955
6407.35    40.881424    10.967911
6407.96    52.583908    10.103661
6408.58    45.158367    10.363311
6409.20    34.371014    11.599367
6409.81    36.048073    10.311621
6410.43    40.197891     7.741768
6411.04    33.772770    14.442875
6411.66    38.564255    13.421173
6412.27    49.061466     8.484345
6412.89    53.290791     9.998405
6413.50    64.119621     8.055356
6414.12    58.285786    10.629354
6414.73    41.855755    13.748504
6415.35    38.034420    11.250316
6415.97    48.620628     7.857400
6416.58    42.603214    12.257753
6417.20    42.266762     9.903747
6417.81    40.946796     8.389258
6418.43    26.919073    16.032627
6419.04    33.912647    11.513250
6419.66    47.206409     9.715704
6420.27    45.573341    14.245136
6420.89    35.133064    15.550734
6421.50    37.222733     9.614466
6422.12    42.989651     8.251615
6422.73    46.827766     9.983965
6423.35    44.256504     9.378411
6423.97    36.941059     6.991073
6424.58    35.690540     7.858794
6425.20    37.240669     7.024974
6425.81    43.972691     5.697308
6426.43    51.523026     6.089682
6427.04    46.584785     7.576298
6427.66    32.617664    11.940432
6428.27    37.347809    12.291953
6428.89    44.013935     9.203377
6429.50    31.770416     7.985097
6430.12    30.403746     7.859575
6430.74    32.016182     8.694157
6431.35    37.652977     8.932615
6431.97    44.537323    10.755967
6432.58    40.089798    15.751554
6433.20    29.525244    14.272166
6433.81    40.002762     7.723582
6434.43    49.556904     5.289487
6435.04    40.906006     9.185299
6435.66    48.400658    10.189465
6436.27    48.740681     9.296125
6436.89    38.348694    12.221590
6437.51    34.950783    14.797245
6438.12    44.604916    11.136709
6438.74    44.939003    11.199739
6439.35    43.288990     8.656377
6439.97    37.479755     7.611906
6440.58    29.881817    11.235641
6441.20    37.014706    11.161272
6441.81    46.600910    10.775206
6442.43    42.618191    11.414552
6443.04    39.288269    10.254823
6443.66    47.993294     7.006992
6444.28    40.118153     7.467820
6444.89    32.639427     9.253678
6445.51    32.602329    10.384387
6446.12    41.537437     9.668252
6446.74    55.672279     7.935504
6447.35    48.256283    10.428287
6447.97    46.533531     9.635741
6448.58    51.548138     6.026765
6449.20    46.469101     6.167576
6449.81    41.452309     8.952248
6450.43    48.592464     6.783916
6451.04    41.509285     7.482623
6451.66    29.711935    11.666022
6452.28    36.956009    11.059731
6452.89    31.132385     8.277815
6453.51    34.232765     9.083431
6454.12    39.850216     9.740133
6454.74    36.386082     9.195669
6455.35    34.107609    11.812830
6455.97    35.226303    11.289641
6456.58    45.719540     7.370682
6457.20    52.105442     6.593767
6457.81    46.693012     7.785369
6458.43    44.819679     3.038178
6459.05    37.349335     8.175861
6459.66    33.256382    10.694108
6460.28    41.195908     7.688876
6460.89    49.000000     9.000000
6461.51    37.641609     9.531801
6462.12    35.178368    12.594214
6462.74    39.175823    13.814311
6463.35    38.867924    13.255405
6463.97    37.257519    15.903901
6464.58    32.775196    15.309727
6465.20    33.122375    15.447936
6465.82    35.467445    15.852572
6466.43    34.911625    14.953210
6467.05    34.190342    15.051061
6467.66    33.031048    14.147402
6468.28    37.790939    14.569653
6468.89    38.359081    14.601914
6469.51    34.320194    11.803325
6470.12    45.821007     9.929255
6470.74    42.457294    11.814710
6471.35    39.229958    13.703526
6471.97    36.266678    16.020494
6472.59    23.965977    17.976784
6473.20    28.699360    11.337248
6473.82    28.345753     9.965948
6474.43    25.742918    10.959406
6475.05    28.730589     9.919174
6475.66    30.960474    10.925849
6476.28    32.307320    12.206907
6476.89    41.058807    10.007022
6477.51    46.888859     7.011134
6478.12    44.742989     7.327548
6478.74    46.567177     9.858706
6479.36    51.763084     9.737844
6479.97    47.877174     7.219140
6480.59    36.695618     5.878274
6481.20    37.770271     7.248891
6481.82    55.330582     8.893136
6482.43    45.706848     9.024959
6483.05    38.306759     9.234115
6483.66    41.630684     8.333859
6484.28    39.713051     7.075193
6484.89    36.526165     9.645083
6485.51    33.640877    10.283227
6486.12    33.325932     9.714542
6486.74    40.304169     8.318859
6487.36    44.507114     7.051981
6487.97    29.522354     8.973547
6488.59    33.480465     7.176076
6489.20    42.174297     9.400117
6489.82    39.444420    13.374188
6490.43    34.954834    10.868122
6491.05    37.876846     8.333586
6491.66    43.101082     7.310053
6492.28    49.563454     6.590171
6492.89    47.489288     7.742613
6493.51    36.941013     9.988661
6494.13    43.633541     7.305765
6494.74    50.959267     8.647356
6495.36    55.069054    10.085485
6495.97    53.341286     6.872391
6496.59    47.001423     5.021030
6497.20    50.409988    12.580944
6497.82    35.465099    20.386492
6498.43    35.161171    15.474580
6499.05    47.387814    10.844146
6499.66    35.008732    19.996819
6500.28    26.852057    17.669594
6500.90    31.744156    12.368607
6501.51    35.811897    13.603167
6502.13    38.657516    15.821896
6502.74    43.015327    13.003204
6503.36    29.540146    14.975873
6503.97    28.559204    18.372208
6504.59    36.254753    15.263078
6505.20    35.990437     8.881140
6505.82    30.998934     9.002156
6506.43    33.713581    13.991208
6507.05    38.084339    15.849177
6507.67    38.977985    13.408414
6508.28    41.343445     8.595127
6508.90    44.970676     4.998665
6509.51    39.208008     7.510902
6510.13    52.266018     7.498783
6510.74    58.009819     7.609686
6511.36    44.074055    11.064954
6511.97    35.978680    12.969297
6512.59    40.128166     9.554016
6513.20    40.215069     9.350271
6513.82    35.318329    10.019144
6514.43    34.827744    10.413473
6515.05    39.075859    12.009599
6515.67    37.469769    10.462353
6516.28    36.314346     8.536832
6516.90    34.902252     7.723250
6517.51    32.227840    10.458235
6518.13    33.375835    13.977493
6518.74    41.033840     9.816957
6519.36    42.483822     7.070596
6519.97    38.289120     7.487229
6520.59    35.663578    10.240865
6521.20    35.971340    13.100863
6521.82    34.340557    12.180395
6522.44    32.850883    11.402973
6523.05    38.630386     9.791927
6523.67    41.317314     9.229278
6524.28    39.550335     9.900112
6524.90    44.493565     8.873020
6525.51    30.971626    11.823460
6526.13    33.311855     9.143271
6526.74    45.440319     7.821411
6527.36    42.537315    11.081088
6527.97    37.652321     8.167357
6528.59    51.089378     6.989884
6529.21    46.206825     7.139414
6529.82    40.321712     9.573529
6530.44    41.566124    10.477676
6531.05    33.974117     6.022004
6531.67    47.690521     6.237934
6532.28    46.043327    10.050716
6532.90    38.835510    13.725829
6533.51    36.899704    17.029652
6534.13    36.369389    17.826921
6534.74    47.596611    11.073866
6535.36    39.224220     8.345366
6535.98    36.859978     6.711696
6536.59    44.570686     6.779433
6537.21    42.505726    10.208971
6537.82    38.255951    10.064605
6538.44    38.116871    10.461910
6539.05    36.289253    12.023367
6539.67    35.367222    10.960439
6540.28    37.037170     7.548657
6540.90    37.735798     6.947115
6541.51    45.829575     8.541895
6542.13    49.273457     9.638629
6542.74    40.179802    10.481761
6543.36    33.007267    10.967385
6543.98    39.068100    12.061735
6544.59    38.537014    17.333477
6545.21    37.654148    16.935303
6545.82    42.250980    12.718097
6546.44    46.696850    12.972854
6547.05    42.076668    15.969512
6547.67    35.178894    11.714219
6548.28    50.351173     7.764100
6548.90    44.144878     6.249159
6549.51    36.399918     5.995519
6550.13    49.535656     7.506824
6550.75    46.505512    10.880774
6551.36    35.335552    12.894227
6551.98    37.361103    18.919380
6552.59    45.174000    23.046743
6553.21    43.211483    19.371426
6553.82    39.224060    13.899594
6554.44    50.160351    15.383731
6555.05    45.496700    17.642155
6555.67    45.709354    13.858259
6556.28    47.135635     8.676565
6556.90    37.028431     6.658853
6557.52    35.912521     4.103028
6558.13    37.442669     4.956938
6558.75    44.519882     8.843233
6559.36    42.637108     9.409966
6559.98    39.430416     8.186755
6560.59    46.915501    10.000443
6561.21    31.485764     8.192766
6561.82    30.874355     9.212155
6562.44    42.631199     9.961561
6563.05    44.829384     8.481133
6563.67    35.830128     9.456782
6564.29    30.176575    13.814140
6564.90    30.996248    12.367828
6565.52    34.505615     8.339360
6566.13    39.528530     9.758976
6566.75    39.985371    16.770191
6567.36    36.065735    18.881338
6567.98    44.652775    10.081517
6568.59    45.684544    10.711632
6569.21    42.113041    14.683218
6569.82    33.483555    12.526248
6570.44    25.032625     8.766348
6571.05    32.575901     9.030177
6571.67    33.190712     7.314205
6572.29    35.706505     7.854681
6572.90    44.926994     9.745787
6573.52    44.404961     9.857264
6574.13    30.534536     8.957385
6574.75    31.896660     8.869748
6575.36    36.760471    10.614701
6575.98    26.335903    15.013004
6576.59    24.027817    17.013668
6577.21    39.141228    16.061710
6577.82    40.144318    17.955631
6578.44    33.813484    17.866390
6579.06    40.757542    12.343576
6579.67    38.686356     9.270652
6580.29    32.035076    10.290733
6580.90    35.837929    11.177123
6581.52    30.147608    12.136254
6582.13    34.224274     9.259456
6582.75    31.777325    11.274017
6583.36    35.657562    12.624007
6583.98    42.487057     9.152963
6584.59    32.610615    10.314409
6585.21    32.222401    17.032822
6585.83    38.027966     9.890674
6586.44    41.731205     7.318365
6587.06    39.098156     8.254543
6587.67    37.720753     6.280901
6588.29    42.996540     9.991493
6588.90    39.801212     7.822158
6589.52    46.494595     5.137960
6590.13    46.571320     5.854784
6590.75    41.605595     9.590890
6591.36    47.114468    10.473248
6591.98    51.976521     5.121055
6592.60    47.956860     7.156676
6593.21    41.080997     8.367821
6593.83    41.644634     7.958547
6594.44    43.605259     7.797231
6595.06    42.353584     6.950760
6595.67    47.098045     6.996926
6596.29    41.606712     6.482658
6596.90    51.472729     4.674204
6597.52    51.431664     7.191012
6598.13    42.086304     9.792467
6598.75    51.523529     8.144506
6599.37    50.592285    12.713438
6599.98    45.068733    11.044602
6600.60    33.970295     9.694281
6601.21    34.102772     9.781497
6601.83    43.060200    10.723217
6602.44    42.009380    12.937224
6603.06    44.721775     9.296428
6603.67    44.332981     9.999206
6604.29    44.793320     7.146398
6604.90    46.457897     2.725570
6605.52    41.933151     5.314775
6606.13    31.704523    10.021002
6606.75    31.431801     7.220641
6607.37    44.682663     8.798546
6607.98    41.706009     6.201226
6608.60    31.148687     4.752419
6609.21    36.562149     6.636726
6609.83    47.126461     2.968848
6610.44    42.042915     5.508212
6611.06    30.715334     6.698371
6611.67    35.993347     8.436688
6612.29    39.660332     7.930226
6612.90    35.634441     4.528770
6613.52    38.758961     6.138597
6614.14    24.514084    10.793018
6614.75    34.940159     8.408596
6615.37    30.527802     6.589952
6615.98    24.864546     9.698479
6616.60    33.070362    12.113371
6617.21    28.051821     9.862171
6617.83    34.902973     6.422270
6618.44    27.458225     4.880084
6619.06    32.553738     6.130284
6619.67    36.110184     9.918428
6620.29    32.266842    10.043653
6620.91    42.157154     4.886274
6621.52    34.536377     7.390810
6622.14    27.234993    10.662960
6622.75    29.485445    10.533472
6623.37    33.074200    10.077440
6623.98    34.703968    11.462969
6624.60    35.809353    13.121861
6625.21    30.556345    13.258508
6625.83    28.829044     9.656525
6626.44    35.636478     9.695750
6627.06    45.921253     8.623196
6627.68    43.882961     7.599740
6628.29    31.260675    11.189528
6628.91    33.595604     9.297163
6629.52    36.873222     6.042909
6630.14    36.480080     8.123114
6630.75    39.294273     7.893928
6631.37    37.616177     8.303560
6631.98    32.404533    11.894812
6632.60    41.751617     7.135330
6633.21    43.883827     5.965213
6633.83    44.761429     5.724848
6634.44    31.997149     7.489378
6635.06    25.182308     9.191217
6635.68    35.192024     7.523027
6636.29    33.956642     6.000121
6636.91    33.102425     7.589053
6637.52    32.415997     9.299334
6638.14    35.826694     6.857368
6638.75    35.334568     4.583316
6639.37    34.015018     6.953649
6639.98    38.930847     8.900496
6640.60    33.271248     6.036485
6641.21    36.184494     8.597648
6641.83    34.747021     6.696844
6642.45    33.747883     5.291914
6643.06    36.236568     7.411953
6643.68    33.384693     8.275105
6644.29    30.934740    10.024124
6644.91    35.341675     7.945993
6645.52    35.177124    10.755265
6646.14    37.324364     7.339387
6646.75    40.366539     4.853721
6647.37    40.377415     9.332105
6647.98    45.240295     6.903143
6648.60    50.030518     5.976363
6649.22    44.990784     6.506133
6649.83    37.473125     8.252745
6650.45    45.984169     6.004254
6651.06    50.546814     4.844243
6651.68    33.559177    10.506764
6652.29    31.869265    11.091380
6652.91    32.999603     9.781992
6653.52    32.275604    12.330051
6654.14    28.409504    11.516967
6654.75    30.519730     8.063081
6655.37    34.386070     8.245217
6655.99    29.040108     8.978599
6656.60    35.680683     7.231463
6657.22    30.675785     6.725014
6657.83    31.113506     7.988966
6658.45    31.388954    10.083108
6659.06    28.075100    10.952905
6659.68    32.634495     9.859635
6660.29    32.287319     9.941977
6660.91    23.266022    11.843352
6661.52    31.417437    10.635983
6662.14    41.487911     6.091340
6662.75    40.923706     6.343416
6663.37    33.468723    10.552393
6663.99    27.120626     8.712523
6664.60    33.748535     5.850443
6665.22    28.956890    10.738476
6665.83    26.381735    11.747120
6666.45    34.079102     7.702937
6667.06    39.701778     5.970620
6667.68    36.022621     8.746301
6668.29    35.098782    10.980029
6668.91    43.028290     7.397096
6669.52    33.689346     7.533732
6670.14    29.100357     7.944999
6670.76    31.852932     8.888361
6671.37    29.997873     9.850931
6671.99    25.186863     9.103144
6672.60    24.749737    10.040117
6673.22    38.627846     6.493316
6673.83    34.815044     6.853242
6674.45    28.924717     9.744572
6675.06    31.062920    11.896378
6675.68    25.990349    13.289375
6676.29    18.243904    11.446717
6676.91    29.387367     5.237849
6677.53    33.101925     4.696535
6678.14    33.329308     5.545862
6678.76    35.518257     7.268756
6679.37    37.653996     7.597547
6679.99    34.221378     7.461043
6680.60    31.607866     8.839243
6681.22    45.192085     4.295622
6681.83    47.209316     3.623060
6682.45    48.821526     4.912071
6683.06    45.461571     4.605916
6683.68    34.158890     6.442750
6684.30    25.647976     9.017575
6684.91    21.589891     8.095427
6685.53    17.670366    10.932657
6686.14    27.056028     8.696795
6686.76    28.432035     7.852610
6687.37    31.680935     7.304715
6687.99    41.502213     5.224840
6688.60    37.998703     5.447685
6689.22    27.145651     9.339149
6689.83    40.876568    12.141723
6690.45    43.206600     6.847960
6691.06    37.903984     1.957213
6691.68    22.502592     8.008963
6692.30    18.902506    11.104481
6692.91    33.611370     6.851536
6693.53    35.950745     8.977255
6694.14    35.059498     6.112725
6694.76    34.387791     7.581603
6695.37    32.538116     7.158714
6695.99    35.761742     4.527359
6696.60    29.145830     4.475752
6697.22    18.957476     6.400589
6697.83    30.204971     7.024620
6698.45    36.069870     7.017290
6699.07    31.596027     6.857622
6699.68    33.280968     7.945698
6700.30    36.104992     6.897669
6700.91    38.735126     6.331316
6701.53    38.826904    10.693955
6702.14    35.242088    12.428518
6702.76    39.080978     4.178113
6703.37    30.791138     4.216779
6703.99    34.615620     8.198684
6704.60    36.914997     8.906384
6705.22    37.236008     7.042363
6705.84    40.447266     5.740962
6706.45    35.413361     7.757296
6707.07    28.006161    12.008262
6707.68    32.532974    10.068458
6708.30    19.484247    12.030349
6708.91    18.271866     8.011518
6709.53    26.663000     4.036978
6710.14    32.598991     8.208574
6710.76    32.069977    12.219367
6711.37    21.904739     9.806579
6711.99    28.574394     7.999727
6712.61    26.158417     8.920702
6713.22    25.245956     8.150778
6713.84    30.103794     8.977571
6714.45    31.919645     7.107216
6715.07    31.196041     4.147851
6715.68    33.176331     7.189640
6716.30    33.037258     6.054389
6716.91    30.763798     5.651051
6717.53    26.002335     8.152032
6718.14    25.700060     4.766152
6718.76    31.085999     4.299025
6719.38    34.237293     7.038351
6719.99    32.822094     4.698356
6720.61    34.130959     5.041872
6721.22    36.967800     5.917599
6721.84    34.280315     6.696786
6722.45    30.467100     7.954116
6723.07    34.794361     7.012963
6723.68    37.576286     5.963698
6724.30    30.925085     7.543026
6724.91    29.799162     9.128070
6725.53    39.847496     9.029101
6726.14    38.919762     7.291171
6726.76    34.559795     6.549509
6727.38    34.300140     8.951977
6727.99    31.953918     9.847013
6728.61    30.565279     8.870749
6729.22    31.327627    10.645020
6729.84    26.959663    11.834721
6730.45    30.700996     7.240536
6731.07    30.952417     6.975344
6731.68    26.366873     5.871710
6732.30    33.355579     8.459702
6732.91    34.174839     8.949320
6733.53    30.109787     5.309596
6734.15    34.251205     6.420805
6734.76    27.070141     7.983409
6735.38    38.991837     5.357277
6735.99    35.787632     4.706166
6736.61    21.409098    12.162037
6737.22    19.477505    11.264674
6737.84    35.388931     5.686993
6738.45    42.751186     6.076612
6739.07    33.859436     4.641459
6739.68    41.977509     3.989064
6740.30    42.666458    10.307522
6740.92    36.920383    10.864156
6741.53    30.934902     8.296349
6742.15    27.568480     8.768486
6742.76    29.681831    10.531907
6743.38    31.584957    11.170537
6743.99    29.070234    10.778111
6744.61    29.143404     8.994418
6745.22    20.967335    10.248755
6745.84    40.012733     5.908013
6746.45    35.434734     6.671911
6747.07    21.209110     7.347867
6747.69    28.714657     6.257524
6748.30    28.685347    10.306284
6748.92    20.453180    11.526651
6749.53    44.750481     5.077661
6750.15    33.466995     6.666131
6750.76    31.060442     5.824668
6751.38    39.585163     4.291543
6751.99    31.989908     6.936455
6752.61    28.264704     6.877744
6753.22    40.038555     3.798272
6753.84    36.837303     5.053607
6754.45    26.128036     4.972078
6755.07    25.286366     7.786012
6755.69    30.377764     7.093221
6756.30    29.199995     8.818678
6756.92    28.666725    10.116487
6757.53    29.916855    10.708694
6758.15    27.031979    11.897449
6758.76    27.843407     9.653756
6759.38    35.002796     7.998878
6759.99    31.461357     7.934492
6760.61    31.249107     8.217531
6761.22    27.460283     6.643076
6761.84    27.066910     5.920280
6762.46    26.315918     5.642437
6763.07    22.975397     5.011857
6763.69    28.165112     6.317830
6764.30    33.041016     8.035577
6764.92    32.719490     8.093048
6765.53    37.831150     6.570356
6766.15    33.477829     4.224472
6766.76    39.473969     5.112178
6767.38    41.552906     5.722873
6767.99    33.896938     5.185954
6768.61    33.129566     5.935332
6769.23    29.155807     4.987115
6769.84    34.081532     5.931837
6770.46    25.471485     6.800474
6771.07    24.984533     7.936096
6771.69    30.302336     7.261535
6772.30    29.566532     7.667433
6772.92    23.261147     7.048636
6773.53    21.932865     4.979193
6774.15    24.486698     7.348999
6774.76    17.999475     8.006330
6775.38    27.954082     4.378942
6776.00    39.496216     4.182570
6776.61    34.397713     7.943537
6777.23    25.849480     8.786591
6777.84    23.236607     7.847927
6778.46    27.720865     7.881385
6779.07    35.872238     6.710826
6779.69    32.417721     4.855755
6780.30    24.909122     3.864570
6780.92    32.504631     7.604978
6781.53    25.826914     6.632098
6782.15    24.115482     6.532707
6782.76    25.114534     6.311145
6783.38    25.668921     4.502355
6784.00    30.489767     3.691151
6784.61    27.312475     3.073523
6785.23    21.925821     6.067938
6785.84    19.349529    10.933332
6786.46    29.101902     7.239631
6787.07    23.533121     4.714241
6787.69    20.679293     5.950367
6788.30    29.554882     8.016501
6788.92    32.708912     6.825928
6789.53    27.844700     5.579693
6790.15    24.848909     8.974491
6790.77    24.035604     5.080914
6791.38    23.426853     4.806539
6792.00    31.258532     5.334515
6792.61    38.739708     3.388604
6793.23    39.883717     4.040083
6793.84    32.454884     4.585809
6794.46    31.200268     2.446769
6795.07    35.959507     3.689201
6795.69    26.992668     5.866269
6796.30    33.968678     2.920080
6796.92    24.737785     8.536153
6797.54    21.983818     5.447870
6798.15    24.405050     4.236579
6798.77    22.376835     4.587416
6799.38    29.835670     4.460228
6800.00    35.463482     4.363727
6800.61    23.496880     3.450425
6801.23    21.908871     7.043056
6801.84    20.789667     4.187496
6802.46    28.578878     3.002156
6803.07    32.631363     2.934304
6803.69    33.815060     3.519915
6804.31    29.410723     4.605260
6804.92    25.637482     5.070089
6805.54    31.618242     5.024828
6806.15    37.183903     6.526082
6806.77    34.953529     7.854245
6807.38    36.037090     4.043363
6808.00    34.451008     7.304671
6808.61    41.668205     8.455911
6809.23    39.105709     6.813925
6809.84    31.521116     4.994953
6810.46    29.363195     6.173633
6811.07    26.761627     8.015367
6811.69    23.868195     5.297773
6812.31    25.053606     2.966045
6812.92    24.088081     5.733512
6813.54    24.037796    11.118498
6814.15    34.095276     4.918887
6814.77    39.648197     2.919581
6815.38    36.673317     4.405448
6816.00    31.547949     3.746234
6816.61    21.435528     6.847228
6817.23    17.951811     9.597544
6817.84    32.859840     4.664055
6818.46    32.982277     4.966845
6819.08    38.311115     6.080202
6819.69    38.599091     4.377681
6820.31    30.180973     4.313601
6820.92    24.587254     6.111139
6821.54    26.973557     4.472776
6822.15    31.252739     3.641203
6822.77    27.989901     8.159738
6823.38    27.877630     8.445614
6824.00    46.130535     2.946254
6824.61    37.268494     4.622758
6825.23    30.996161     8.179031
6825.85    31.360659    12.053126
6826.46    23.461109    13.501964
6827.08    20.684858    12.140760
6827.69    22.881857    15.729378
6828.31    24.989143    17.981617
6828.92    32.781361    12.800335
6829.54    31.846338    14.988995
6830.15    28.339735    12.070394
6830.77    23.539843    13.022851
6831.38    41.467979    10.529428
6832.00    34.059902    11.519932
6832.62    29.581490    14.393497
6833.23    27.594707    15.324064
6833.85    27.124691    14.254335
6834.46    35.448383    13.131411
6835.08    21.455410    12.458440
6835.69    30.119364     6.972233
6836.31    33.846851     8.783251
6836.92    35.305878     8.962125
6837.54    30.640247    10.471190
6838.15    23.468689    10.899437
6838.77    22.768785    12.076932
6839.39    26.501333     9.698019
6840.00    28.305704     3.863248
6840.62    27.693317     6.078039
6841.23    25.886015     9.905225
6841.85    25.030525     5.099544
6842.46    25.331705     5.697487
6843.08    31.744719     6.347505
6843.69    26.641617     4.458228
6844.31    29.304150     4.419323
6844.92    35.437378     5.104820
6845.54    35.453766     5.154283
6846.15    37.155071     6.490229
6846.77    30.987650     8.232232
6847.39    18.698730     7.871247
6848.00    20.730423     5.035709
6848.62    24.109102     6.157434
6849.23    30.791065     2.217228
6849.85    30.515907     0.879397
6850.46    24.574373     3.981852
6851.08    29.840748     4.784759
6851.69    35.935204     3.947164
6852.31    25.724392     3.733454
6852.92    17.814795     4.607644
6853.54    21.049110     8.998967
6854.16    19.951778     4.385872
6854.77    23.425215     2.789174
6855.39    23.559305     4.380510
6856.00    22.896212     6.092309
6856.62    26.893173     4.692503
6857.23    29.085941     4.903667
6857.85    27.781340     5.254050
6858.46    29.882944     3.035234
6859.08    33.224934     5.180158
6859.69    30.862154     4.991800
6860.31    24.215406     5.006786
6860.93    26.956890     5.976896
6861.54    30.139620    13.539173
6862.16    28.642824    12.809612
6862.77    32.275017     7.624605
6863.39    31.702131    10.505280
6864.00    30.966087    14.375921
6864.62    33.306213    14.519809
6865.23    21.075121    14.150308
6865.85    20.988979     5.949918
6866.46    16.546852    10.588652
6867.08    13.143253    10.095260
6867.70    22.099773     4.009018
6868.31    21.572243     3.956013
6868.93    22.303591     5.092058
6869.54    21.187525     5.811404
6870.16    12.992358     6.962218
6870.77    13.857776     5.791830
6871.39    15.772397     6.145828
6872.00    14.114302     5.905459
6872.62    22.407322     2.108102
6873.23    24.262457     4.226548
6873.85    14.424518     7.171536
6874.46    17.590389     4.414047
6875.08    26.108383     2.663261
6875.70    25.750095     2.894192
6876.31    16.628098     3.724322
6876.93    15.617556     4.854785
6877.54    25.955256     4.183928
6878.16    16.702190     5.993731
6878.77    20.523415     4.064003
6879.39    26.975880     4.783476
6880.00    22.824091     5.201799
6880.62    25.357273     4.217257
6881.23    34.622540     4.336719
6881.85    32.888405     5.741710
6882.47    26.778236     5.491031
6883.08    24.735657     3.482311
6883.70    24.186419     3.121890
6884.31    32.095257     4.017762
6884.93    28.932039     3.046303
6885.54    36.771324     1.882500
6886.16    28.175831     4.384823
6886.77    20.376320     5.374575
6887.39    25.361284     4.120807
6888.00    27.740299     4.973459
6888.62    19.749830     8.852816
6889.24    17.300035     9.010214
6889.85    27.039288     4.203149
6890.47    28.249107     4.294872
6891.08    17.928164     7.006124
6891.70    18.196192     5.234335
6892.31    28.135818     3.972476
6892.93    24.365793     4.682600
6893.54    14.896450     5.540834
6894.16    13.174052     6.894778
6894.77    16.776905     5.883462
6895.39    15.355358     3.499522
6896.01    19.942272     4.523616
6896.62    34.417812     6.054725
6897.24    24.464045     7.212663
6897.85    20.059738    11.103435
6898.47    18.560165     4.591573
6899.08    14.711099     6.473042
6899.70    20.577023     4.105628
6900.31    22.710524     5.319032
6900.93    23.562208     9.090566
6901.54    20.909702     9.054704
6902.16    18.981869     8.625413
6902.77    27.285774     8.265676
6903.39    20.228922     8.720250
6904.01    17.979664     4.014269
6904.62    24.503727     4.051058
6905.24    24.582777     2.082531
6905.85    21.808979     4.611471
6906.47    14.616071     7.399712
6907.08    19.843679     5.060745
6907.70    26.936174     1.938549
6908.31    19.902117     2.762302
6908.93    18.244766     3.768352
6909.54    24.010818     3.366889
6910.16    19.963728     7.066161
6910.78    24.662479     6.015095
6911.39    28.571171     7.108524
6912.01    29.972748     3.886403
6912.62    22.752464     3.064219
6913.24    19.534481     5.882546
6913.85    26.118881     7.451696
6914.47    30.954355     6.187763
6915.08    26.926525     4.884530
6915.70    21.519751     4.862670
6916.31    22.007933     3.983123
6916.93    20.999678     3.999412
6917.55    19.562431     2.848526
6918.16    14.539385     5.959034
6918.78    30.558403     2.621261
6919.39    22.750187     5.114508
6920.01    21.453522     6.261230
6920.62    24.097624     5.708185
6921.24    16.640135     6.504961
6921.85    20.047005     7.251109
6922.47    18.148701    12.093102
6923.08    23.393702     8.876843
6923.70    26.163979     9.914402
6924.32    20.650381    10.330963
6924.93    30.054083     7.177025
6925.55    22.158579     9.316698
6926.16    14.975164     8.038448
6926.78    26.874557     5.149686
6927.39    24.256075     7.349453
6928.01    18.928316     6.734319
6928.62    31.106611     2.770812
6929.24    17.157398     6.759943
6929.85    13.162786    10.996488
6930.47    26.511654     7.291470
6931.08    22.569958     6.147680
6931.70    27.218573     4.338697
6932.32    27.530664     4.685643
6932.93    26.551952     4.151814
6933.55    28.300905     2.370171
6934.16    22.944704     4.356306
6934.78    23.725008     5.439235
6935.39    31.471920     3.068694
6936.01    21.644447     4.983795
6936.62    24.001833     2.066096
6937.24    19.314049     2.319921
6937.85    22.541943    10.413466
6938.47    26.462189    13.401329
6939.09    22.520512    11.993516
6939.70    18.587439     9.233970
6940.32    23.292372     7.954205
6940.93    26.737244     7.302831
6941.55    29.365273     4.446613
6942.16    29.065853     7.058161
6942.78     3.803643    12.922677
6943.39    21.817453     4.445962
6944.01    25.978659     3.517321
6944.62    20.679083     5.752859
6945.24    20.457512     5.701591
6945.86    20.860748     3.597948
6946.47    18.757648     6.950817
6947.09    18.415285     9.851235
6947.70    20.658014     7.944654
6948.32    24.060425     8.996399
6948.93    33.285778     7.952309
6949.55    42.004337     8.994982
6950.16    31.199118    10.922151
6950.78    26.079752    10.306787
6951.39    25.541725     9.160647
6952.01    22.785858     8.967896
6952.63    18.693939     8.806752
6953.24    19.264194     6.602068
6953.86    23.097345     4.813639
6954.47    22.129295     4.781440
6955.09    20.304781     4.098634
6955.70    24.072033     6.120318
6956.32    22.974403     7.909467
6956.93    24.499466     9.162750
6957.55    17.473171     6.039272
6958.16    23.705818     3.206321
6958.78    26.573591     3.484906
6959.40    22.438496     4.215447
6960.01    27.547560     3.627908
6960.63    31.361719     2.821620
6961.24    23.228561     3.241772
6961.86    21.559395     5.283617
6962.47    26.987181     8.014836
6963.09    18.481342     9.174688
6963.70    21.692400     5.600524
6964.32    25.593422     4.455515
6964.93    31.882370     1.239730
6965.55    25.571529     0.584202
6966.16    26.898252     2.788862
6966.78    34.490192     5.410755
6967.40    23.107040     8.231755
6968.01    17.628508     8.193134
6968.63    16.943386    10.022984
6969.24    15.949684     9.026536
6969.86    19.922792     9.186131
6970.47    25.568478     6.507544
6971.09    17.573967     6.887737
6971.70    17.694496     9.457737
6972.32    21.227108     6.387555
6972.93    20.374516     4.478736
6973.55    20.036640     5.401564
6974.17    17.037739     3.156321
6974.78    21.563578     6.144978
6975.40    26.954567     5.016048
6976.01    27.919613     4.762272
6976.63    15.459060     7.701638
6977.24    19.188995     6.705314
6977.86    27.437775     5.816514
6978.47    26.808044     5.898735
6979.09    24.015368     6.680075
6979.70    24.598066     8.506914
6980.32    20.551168     9.015290
6980.94    12.052257     7.623710
6981.55    19.090609     4.985013
6982.17    14.700624     7.570851
6982.78     8.775760    12.058222
6983.40    15.764606     7.576268
6984.01    24.440598     5.526387
6984.63    26.093796     5.943779
6985.24    20.422508     6.876125
6985.86    14.712715     7.923666
6986.47    15.675754     4.863733
6987.09    18.265610     3.419765
6987.71    19.047918     8.125822
6988.32    19.151552     7.966117
6988.94    17.060328     9.350054
6989.55    28.736744     3.535785
6990.17    27.925537     1.625946
6990.78    23.788525     1.522972
6991.40    19.800285     4.720522
6992.01    18.361387     8.282829
6992.63    23.671545     4.820362
6993.24    23.011225     3.195104
6993.86    19.233736     7.347348
6994.47     6.129381     9.220062
6995.09    15.138133     0.684776
6995.71    21.514629     2.889145
6996.32    22.955580     3.450182
6996.94    18.018810     4.345685
6997.55    24.268707     3.571970
6998.17    24.406908     5.483823
6998.78    10.408860     9.584099
6999.40    17.862358     4.547665
7000.01    26.445578     4.956427
7000.63    28.188065     3.018556
7001.24    20.785084     4.725415
7001.86    19.083551     5.966345
7002.48    10.884253    12.008273
7003.09    13.077496     9.528628
7003.71    16.712204     8.524660
7004.32    16.201193     9.834523
7004.94    22.500214     3.738770
7005.55    22.240831     4.722409
7006.17    14.512720     9.099585
7006.78     9.062159     7.190736
7007.40    13.807270     4.278431
7008.01    29.020920     3.757050
7008.63    25.769506     5.108266
7009.25    16.984570     7.499325
7009.86    12.277130     7.345255
7010.48     5.585935     8.101146
7011.09     7.072066     9.460749
7011.71    16.798800     5.782409
7012.32    18.101027     7.039305
7012.94    22.858866     7.006240
7013.55    19.428576     7.165007
7014.17    13.590755     5.370490
7014.78    19.461592     5.589911
7015.40    16.494471     5.595882
7016.02    16.195694     4.976467
7016.63    23.308769     4.617486
7017.25    19.892715     2.494363
7017.86    19.326124     2.239149
7018.48    11.014441     4.996828
7019.09    16.978714     3.157038
7019.71    22.246220     3.799821
7020.32    25.055786     3.330496
7020.94    22.213154     3.370050
7021.55    15.933271     4.434762
7022.17    19.328045     2.982768
7022.78    22.733316     2.643683
7023.40    15.889593     4.917998
7024.02    24.629932     1.868712
7024.63    32.089424     1.867230
7025.25    23.798092     4.547206
7025.86    17.893902     6.392080
7026.48    15.610529     8.746069
7027.09    26.689022     7.353974
7027.71    28.626072     3.487911
7028.32    21.075108     1.389404
7028.94    26.157246     1.331847
7029.55    21.649464     4.301236
7030.17    21.934900     6.007272
7030.79    24.777416     4.274748
7031.40    24.082510     3.178617
7032.02    18.803976     2.298162
7032.63    16.517292     1.890728
7033.25    23.769032     2.105746
7033.86    29.511745     1.761090
7034.48    28.059084     2.600118
7035.09    27.394329     5.090620
7035.71    19.994890     3.998840
7036.32    19.819551     3.946028
7036.94    20.606813     4.115564
7037.56    22.995363     3.584564
7038.17    20.174143     6.046173
7038.79    17.969248     5.961662
7039.40    18.875206     3.711242
7040.02    16.101187     5.698668
7040.63    11.159160     6.866272
7041.25     7.009505     4.997880
7041.86    13.862556     6.050925
7042.48    22.454084     3.539456
7043.09    26.518845     3.405231
7043.71    22.541882     4.363587
7044.33    19.635590     3.243161
7044.94    21.751743     3.787710
7045.56    19.734802     6.402424
7046.17    16.186098     5.768529
7046.79    20.989191     4.002346
7047.40    18.531147     5.544233
7048.02    16.178133     8.857382
7048.63    15.875959     6.946255
7049.25    16.741142     6.499909
7049.86    22.732433     6.101244
7050.48    22.758394     5.619671
7051.09    22.751003     8.214280
7051.71    40.850109     6.825825
7052.33    33.685326     5.074379
7052.94    16.463923     3.812107
7053.56    16.689228     6.497730
7054.17    17.204926     5.859953
7054.79    16.411980     5.141823
7055.40    24.812262     3.545903
7056.02    29.094486     0.797429
7056.63    21.034084     2.194216
7057.25    20.003716     4.171214
7057.86    19.155993     8.953489
7058.48    17.345476     4.997480
7059.10    16.913635     4.034347
7059.71    21.910372     6.326284
7060.33    26.533112     4.025824
7060.94    24.647491     2.413498
7061.56    21.879719     3.671354
7062.17    23.031199     2.241143
7062.79    21.137144     6.948441
7063.40    18.085007     4.271908
7064.02    19.649624     6.668187
7064.63    18.477560     8.810982
7065.25    16.087183     6.256057
