#Wavelength     Flux    Sky Spectrum 
#[Angstrom]   [Counts]     [Counts]
4657.89    23.374723     5.043891
4659.07    22.275640     1.006727
4660.24    21.262253     3.315403
4661.42    17.111347     8.087807
4662.59    15.540249     3.592176
4663.77    22.155964     3.621262
4664.95    13.094805     7.563197
4666.12    15.275164     6.185014
4667.30    19.535698     6.119766
4668.48    17.953230     7.336447
4669.65    24.997860     2.018601
4670.83    16.537350     5.167386
4672.00     9.697937     6.087032
4673.18     8.767549     7.339426
4674.36     9.273505     8.852119
4675.53    11.304746     8.177935
4676.71    14.712031    10.333731
4677.88    15.391172     3.502797
4679.06    14.233681     4.598938
4680.24    17.241058     8.273133
4681.41    24.391994     3.914732
4682.59    25.057732     0.998130
4683.76    14.922508     3.471871
4684.94    18.773508     4.396944
4686.12    21.560743     7.072845
4687.29    19.023561     6.454973
4688.47    19.691517     2.133364
4689.64    14.336346     6.924256
4690.82    15.872278     2.629864
4692.00    22.580849     6.388561
4693.17    19.360750     9.377127
4694.35    13.018126     5.962140
4695.52    18.040966     7.983898
4696.70    17.228281     3.747448
4697.88    26.427296     3.249612
4699.05    25.597130     8.238748
4700.23    19.517910     9.075418
4701.40    20.537725     4.609296
4702.58    12.533276     6.605944
4703.76     9.410418    12.275187
4704.93    20.087811     5.481186
4706.11    34.185429     0.582630
4707.28    27.613352     5.262176
4708.46    12.313573     5.795156
4709.64    30.968405     2.000274
4710.81    19.467171     5.817538
4711.99    20.942789     5.581691
4713.16    22.981321     4.841713
4714.34     9.302751     8.294344
4715.52    18.876625     6.046719
4716.69    24.052380     2.325933
4717.87    22.183702     2.991426
4719.04    20.676001     4.577906
4720.22    27.867432     3.179341
4721.40    36.000351     0.837704
4722.57    27.793175     1.746324
4723.75    22.072750     5.723794
4724.93    18.425640     9.027023
4726.10    19.794470     7.512829
4727.28    25.130758     4.713705
4728.45    24.757139     4.964356
4729.63    21.263987     3.857529
4730.81    31.549995     7.203553
4731.98    25.436171    10.978254
4733.16    16.267258     9.756352
4734.33    23.210163     5.145824
4735.51    23.088182     2.996328
4736.69    16.335737     4.674148
4737.86    20.264336     4.711086
4739.04    19.579468     3.149487
4740.21    18.822056     3.531486
4741.39    26.223171     5.004771
4742.57    23.020037     4.010563
4743.74    28.187881     5.392266
4744.92    30.824310     6.629576
4746.09    29.452923     4.502713
4747.27    26.829012     3.373253
4748.45    21.774782     8.381779
4749.62    20.718706    12.373436
4750.80    23.475517     5.379395
4751.97    22.754683     3.225365
4753.15    17.829758     5.114383
4754.33    18.123995     3.933366
4755.50    24.008663     4.987001
4756.68    17.626411     5.846875
4757.85    21.843922     6.358703
4759.03    24.974894     4.743993
4760.21    20.691509     4.686180
4761.38    17.466009     8.429144
4762.56    17.289181     8.351069
4763.73    31.932041     2.073696
4764.91    33.110039     2.525072
4766.09    20.981180     6.547301
4767.26    22.077202     6.714738
4768.44    36.374332     6.064246
4769.61    31.320423     7.292328
4770.79    24.755806     2.824751
4771.97    16.013308     4.599772
4773.14    25.380867     8.835224
4774.32    42.582260     6.140800
4775.49    29.161930     5.922831
4776.67    22.256754    16.327597
4777.85    29.267605     9.930697
4779.02    27.950600     3.555220
4780.20    29.485865     7.406374
4781.38    38.598499    10.286916
4782.55    24.863707    11.100968
4783.73    25.091501     8.686994
4784.90    29.536072     7.411045
4786.08    32.989845     6.040372
4787.26    32.821041     5.218083
4788.43    28.019672     7.045460
4789.61    31.376585     6.920952
4790.78    22.333279     8.144423
4791.96    19.912516     5.882116
4793.14    28.524242     4.124486
4794.31    34.831776     6.267825
4795.49    34.206699     6.032616
4796.66    25.078533     5.063648
4797.84    27.075632     5.251256
4799.02    30.829279     3.847874
4800.19    29.947802     3.569325
4801.37    29.843987     6.066307
4802.54    29.419956     5.023839
4803.72    38.939018     6.475460
4804.90    43.727791     6.786726
4806.07    39.535999     5.526234
4807.25    30.405745     6.609030
4808.42    21.982328    10.029685
4809.60    26.771725    10.459418
4810.78    28.889755     7.441097
4811.95    22.992540     8.663034
4813.13    25.083780    11.241329
4814.30    31.446054     8.446610
4815.48    23.610765     4.290845
4816.66    40.569275     2.056392
4817.83    37.216370     2.916459
4819.01    23.908871     4.925764
4820.18    24.618143     8.112931
4821.36    25.984417    10.972436
4822.54    24.866703     6.856944
4823.71    27.730324     4.055725
4824.89    29.058451     4.637632
4826.06    25.086523     7.038589
4827.24    23.482239     9.173313
4828.42    29.713446     9.049169
4829.59    30.681505     8.253436
4830.77    34.048859     7.374737
4831.94    35.946457     6.785859
4833.12    33.343246     7.302885
4834.30    27.502466     9.083485
4835.47    14.857984     9.522625
4836.65    19.724909     4.847688
4837.83    31.210184     6.252042
4839.00    33.563004     8.789293
4840.18    32.386829     5.767764
4841.35    38.591949     6.859126
4842.53    40.227612     7.608385
4843.71    33.910320     4.152295
4844.88    30.856949     4.127504
4846.06    31.696686     7.323502
4847.23    31.110971     5.949891
4848.41    37.636292     5.589144
4849.59    33.757698     8.649303
4850.76    34.116352     6.880180
4851.94    36.041100     3.645192
4853.11    26.701996     5.158760
4854.29    20.800644     5.093935
4855.47    27.550838     4.524621
4856.64    26.421986     7.375101
4857.82    25.362650     8.944653
4858.99    32.069927     6.411871
4860.17    32.047031     5.965027
4861.35    26.973709    10.373501
4862.52    25.471645     9.828688
4863.70    29.803598     6.343935
4864.87    29.361687     6.728908
4866.05    24.112663     8.969888
4867.23    31.977943     6.282681
4868.40    32.731358     6.633042
4869.58    28.342501     6.308314
4870.75    22.299807     4.491343
4871.93    20.893694     5.375072
4873.11    34.678284     7.953724
4874.28    46.422176     6.498089
4875.46    37.235588     6.298097
4876.63    34.397850     7.283584
4877.81    38.642708     8.506616
4878.99    26.045153    10.989383
4880.16    32.962906    10.408384
4881.34    42.659019     9.012832
4882.51    46.271240     9.740250
4883.69    41.246578    11.259292
4884.87    32.921959    10.949041
4886.04    38.752697     9.433652
4887.22    40.737980     6.988319
4888.39    27.617523     8.954804
4889.57    25.117451    10.869285
4890.75    39.810753     8.923437
4891.92    36.548355     9.176578
4893.10    36.951077     5.857484
4894.28    42.871952     5.695851
4895.45    39.559429     7.171169
4896.63    28.801674     7.181972
4897.80    31.217739     8.946964
4898.98    44.228920     8.324911
4900.16    36.652691     8.230506
4901.33    33.859581    12.583803
4902.51    48.376598    12.600990
4903.68    51.984974     3.107933
4904.86    53.162743     5.624434
4906.04    56.254730     9.039881
4907.21    43.283401    14.761437
4908.39    27.754320    18.680426
4909.56    40.296600    11.900351
4910.74    57.310249     7.387246
4911.92    42.061089     6.850438
4913.09    38.995708     6.884685
4914.27    49.065662     7.382452
4915.44    46.452072     7.922497
4916.62    62.549255     5.693892
4917.80    39.091774    10.864996
4918.97    30.363300    12.367016
4920.15    45.777275     9.762877
4921.32    44.943111     9.862957
4922.50    46.774395     5.664853
4923.68    46.481888     3.579936
4924.85    49.649300     1.675601
4926.03    44.764725     3.891446
4927.20    28.041109    11.455865
4928.38    29.600445    12.405383
4929.56    47.674728     9.361599
4930.73    41.377319    10.532127
4931.91    36.457256    11.391265
4933.08    53.386116     7.803489
4934.26    43.241760     7.932853
4935.44    44.960342     7.741662
4936.61    44.565273     9.500302
4937.79    32.564186    11.022246
4938.96    27.373938     9.964811
4940.14    38.365383    10.136977
4941.32    43.564194     8.573766
4942.49    41.156738    12.011614
4943.67    40.520691    12.610652
4944.85    41.837837     5.622359
4946.02    40.115028     5.754720
4947.20    51.516823     6.183156
4948.37    51.936024     6.125661
4949.55    32.600628     9.918540
4950.73    17.768806    13.945351
4951.90    30.384247     8.894369
4953.08    56.303596     7.006639
4954.25    47.398701     9.912938
4955.43    32.516518    10.368688
4956.61    49.655319     5.750209
4957.78    51.709255     3.600426
4958.96    58.759388     7.722232
4960.13    67.881714     7.897350
4961.31    56.567226     8.360983
4962.49    36.997971    12.940430
4963.66    54.489288     4.394712
4964.84    55.866558     5.023636
4966.01    53.073689     9.280162
4967.19    60.182732     8.861279
4968.37    55.212078     8.026626
4969.54    37.509071     6.948510
4970.72    38.937519    13.999848
4971.89    47.552868    12.769897
4973.07    46.442135     4.490568
4974.25    45.770874     8.725786
4975.42    52.435959     9.730910
4976.60    53.356327     7.251470
4977.77    49.944817     8.181458
4978.95    51.712887    11.084968
4980.13    56.837585     9.953131
4981.30    52.947132    12.388243
4982.48    42.437260    11.793173
4983.65    51.450008     9.874130
4984.83    68.740456    11.054765
4986.01    47.917747    10.300162
4987.18    47.277504     8.858961
4988.36    53.830288    10.302735
4989.53    51.205769    12.087602
4990.71    51.039356     9.948444
4991.89    54.088329     7.671092
4993.06    51.179352    11.606531
4994.24    57.597927    14.321088
4995.41    62.336735    11.166851
4996.59    44.763069     8.928099
4997.77    43.180706    13.088083
4998.94    42.363670    17.552299
5000.12    44.868015    14.672703
5001.30    54.764786     7.369413
5002.47    54.650120     5.866755
5003.65    50.908115     7.269413
5004.82    57.408379     8.869900
5006.00    56.620193    10.581797
5007.18    45.090332    10.943177
5008.35    62.474953     7.428016
5009.53    64.070892     8.155391
5010.70    54.266117     8.473588
5011.88    53.486267    10.257590
5013.06    53.597031    18.664051
5014.23    41.467052    16.660721
5015.41    47.858185     9.142752
5016.58    67.099167     5.482957
5017.76    71.557983     5.990595
5018.94    63.220673     5.042890
5020.11    69.110977     6.329179
5021.29    59.153358    10.234894
5022.46    44.929974    11.779399
5023.64    52.160099    11.834903
5024.82    35.665108    19.668686
5025.99    47.725861    13.322577
5027.17    63.801044     9.103982
5028.34    53.936443    16.285034
5029.52    51.750881    11.888525
5030.70    53.776802     9.099560
5031.87    56.494816     8.802443
5033.05    54.474598     9.411496
5034.22    45.139370    10.995623
5035.40    40.113342     9.685019
5036.58    52.929451     7.655055
5037.75    59.182999     6.893766
5038.93    51.718643     8.341840
5040.10    54.961109    11.592463
5041.28    49.126190    12.674397
5042.46    42.526981    10.322549
5043.63    49.395931     7.516500
5044.81    60.021111     7.941897
5045.98    51.656788    11.077316
5047.16    65.926109    12.899494
5048.34    82.917725    10.499937
5049.51    68.386917     8.093017
5050.69    44.478207    12.184883
5051.86    52.136597    14.005041
5053.04    62.620586     7.783706
5054.22    59.304157     6.524732
5055.39    58.080521    15.944267
5056.57    58.613842     7.998318
5057.75    73.670700    10.236715
5058.92    82.815582    13.579718
5060.10    71.458481     4.855685
5061.27    63.378632     9.042124
5062.45    52.576309     8.504884
5063.63    61.575249     7.807677
5064.80    78.373184     9.794169
5065.98    67.120964     6.163809
5067.15    69.964325     8.833341
5068.33    79.177139    12.706674
5069.51    67.931671    14.550427
5070.68    49.803177    16.008221
5071.86    73.442932    14.009012
5073.03    61.856777    11.300350
5074.21    50.271362     9.360774
5075.39    72.437996     9.086754
5076.56    61.074677    10.985595
5077.74    64.890533     9.329094
5078.91    65.187576    10.686159
5080.09    56.451309    13.962081
5081.27    67.633698    10.409861
5082.44    60.451252    10.261083
5083.62    77.927025    11.201762
5084.79    91.748543     9.299793
5085.97    59.085445     8.718594
5087.15    67.658119    16.330059
5088.32    78.636696    15.920884
5089.50    68.599342     9.375333
5090.67    54.826496     9.046292
5091.85    52.214512    12.745535
5093.03    72.128380    10.885855
5094.20    70.840591    11.746883
5095.38    46.188576    17.129114
5096.55    55.608521    13.891770
5097.73    58.386951    11.877155
5098.91    67.527328    12.015125
5100.08    78.379173    12.052681
5101.26    64.582573    12.156009
5102.43    76.671455    10.134923
5103.61    93.608398     8.266795
5104.79    84.299866     9.691037
5105.96    60.934738    12.918201
5107.14    65.294388    11.845298
5108.31    64.063232    14.544415
5109.49    58.872387    16.460360
5110.67    68.788879    11.155813
5111.84    65.402603    10.427304
5113.02    57.043446    11.943244
5114.20    59.784908    13.643456
5115.37    67.997307    15.000856
5116.55    59.921608    14.593342
5117.72    60.662525    17.522842
5118.90    70.287079    18.290693
5120.08    76.239761    12.666264
5121.25    78.525040     8.685313
5122.43    73.881424    13.249521
5123.60    68.330582    18.044838
5124.78    71.906639    15.566817
5125.96    81.574753    10.622604
5127.13    67.764442    10.253341
5128.31    53.896442    10.931031
5129.48    69.636826     9.931130
5130.66    98.048927    11.211712
5131.84    79.137779    16.498838
5133.01    49.340492    19.827467
5134.19    51.229950    18.742140
5135.36    72.904205    16.538755
5136.54    81.111038    13.395529
5137.72    75.297714    14.226209
5138.89    71.081451    15.726163
5140.07    73.440201    11.489052
5141.24    66.347618    10.589161
5142.42    72.829102     7.838412
5143.60    80.869080     8.236221
5144.77    63.559593    18.297890
5145.95    65.226662    15.955452
5147.12    68.995743    12.101227
5148.30    69.142929    13.020459
5149.48    79.199921    12.045852
5150.65    76.958183    13.019914
5151.83    62.988285    14.897409
5153.00    59.649933    14.679692
5154.18    73.493217    12.234124
5155.36    63.847801    12.045078
5156.53    52.156223    14.466945
5157.71    61.395367    14.423110
5158.88    79.081833    10.200352
5160.06    73.934975    12.272441
5161.24    68.252342    14.455778
5162.41    74.168373    12.525126
5163.59    75.825592    10.228119
5164.77    67.654388     9.371319
5165.94    76.316109     8.302746
5167.12    93.158028     8.292740
5168.29    86.768021    10.170865
5169.47    78.345757     6.538529
5170.65    68.462135     5.883702
5171.82    63.501293    12.055336
5173.00    71.584610    16.900961
5174.17    65.933350    14.234171
5175.35    62.764160    11.373052
5176.53    61.555645    13.404382
5177.70    43.872261    16.568832
5178.88    48.301460    16.927441
5180.05    64.003899    12.402493
5181.23    72.676582     7.895780
5182.41    77.232475     9.713791
5183.58    73.018547     8.766628
5184.76    72.300339     8.829810
5185.93    73.585587    13.239127
5187.11    60.287655    15.305846
5188.29    60.344864    12.737762
5189.46    58.625469    10.954803
5190.64    48.002529    10.962097
5191.81    58.892738     8.348652
5192.99    61.131100    19.078531
5194.17    69.011024    22.830254
5195.34    89.838135     9.202144
5196.52    77.233047    13.904465
5197.69    69.289848    17.764332
5198.87    71.665886    15.924294
5200.05    68.748718    17.037920
5201.22    78.190994    14.425934
5202.40    85.450836    12.190223
5203.57    79.978905    11.909046
5204.75    66.971832    11.808888
5205.93    56.010876    14.136912
5207.10    55.191235    14.713019
5208.28    61.973392    12.767792
5209.45    67.793739    12.036754
5210.63    74.141426    11.960752
5211.81    83.216797    12.016416
5212.98    84.248825    10.806197
5214.16    66.609917     8.529188
5215.33    63.015774    13.070467
5216.51    67.855194    13.356434
5217.69    71.983414     7.001213
5218.86    86.220322    12.558531
5220.04    72.812202    16.102711
5221.22    65.538277    12.865072
5222.39    89.475151    11.676822
5223.57    74.362991    18.585115
5224.74    70.585083    17.313263
5225.92    82.137192    14.973791
5227.10    70.648750    24.473576
5228.27    68.815002    18.829676
5229.45    71.328354    10.578531
5230.62    71.243446    12.457740
5231.80    77.028511    16.644238
5232.98    84.250343    15.540435
5234.15    89.803093    14.038745
5235.33    90.977150    14.993772
5236.50    84.132408    12.987773
5237.68    72.227745    15.285843
5238.86    74.566055    16.240751
5240.03    87.444473    12.798840
5241.21    66.963425    19.971035
5242.38    65.915817    19.199497
5243.56    84.201485    12.865253
5244.74    79.873291    16.845249
5245.91    89.113846    12.564606
5247.09    83.160973    11.341133
5248.26    59.327332    17.115145
5249.44    65.440979    14.150849
5250.62    77.060997    12.892693
5251.79    80.236603    16.231567
5252.97    78.179253    18.965801
5254.14    74.420113    17.429655
5255.32    67.719269    14.273436
5256.50    59.499969    14.585917
5257.67    56.279865    19.355789
5258.85    65.667496    20.690771
5260.02    77.673004    19.344170
5261.20    84.362801    16.715298
5262.38    89.667206    11.576767
5263.55    98.897133     7.378158
5264.73    104.487106     7.800570
5265.90    96.881050    11.813166
5267.08    80.522842    13.132357
5268.26    79.567490    12.722687
5269.43    84.439041    11.759497
5270.61    73.036285    12.127247
5271.78    68.266563    18.945614
5272.96    69.470779    19.061682
5274.14    75.562920    10.763080
5275.31    90.096428    10.635368
5276.49    81.795021    14.975410
5277.67    67.163887    17.063398
5278.84    72.193954    16.004202
5280.02    77.498016    17.117950
5281.19    77.289864    15.243418
5282.37    76.067757    11.876123
5283.55    75.696671    15.178448
5284.72    65.177902    22.728003
5285.90    70.003143    19.486977
5287.07    89.878708     9.028549
5288.25    78.454323    17.337700
5289.43    69.794075    20.726826
5290.60    75.015434    13.636618
5291.78    78.312378    10.112185
5292.95    83.831856    10.945533
5294.13    93.700836    12.462553
5295.31    101.061165    13.032044
5296.48    96.561783    13.923087
5297.66    90.693909    13.432655
5298.83    92.408531    11.405988
5300.01    96.497131    11.455931
5301.19    86.089699    18.403049
5302.36    83.992989    20.376736
5303.54    93.491867    14.472511
5304.71    92.247482    10.601444
5305.89    88.450912     9.645405
5307.07    76.637917    14.220536
5308.24    61.219555    20.871735
5309.42    72.659836    16.746281
5310.59    92.208412    10.063969
5311.77    101.543480     9.290493
5312.95    96.315308    13.798954
5314.12    70.151085    16.683680
5315.30    61.641205    14.890336
5316.47    84.021378    12.872958
5317.65    87.582069    17.906986
5318.83    86.719368    16.737000
5320.00    87.446342    13.288687
5321.18    81.773651    19.382639
5322.35    88.692696    16.491116
5323.53    86.933517    13.277213
5324.71    71.223862    16.975142
5325.88    79.696342    14.091125
5327.06    86.033386    17.719967
5328.23    84.372139    22.768141
5329.41    93.155380    14.794344
5330.59    101.806046    11.827061
5331.76    88.545998    13.272179
5332.94    59.914490    14.776255
5334.12    58.444649    20.868500
5335.29    77.693138    19.791157
5336.47    88.783455    14.830522
5337.64    75.037437    18.610727
5338.82    65.810608    22.276270
5340.00    77.413895    18.873949
5341.17    94.754509    12.186126
5342.35    84.695496    13.671829
5343.52    75.989914    14.860503
5344.70    76.598511    14.168271
5345.88    66.787529    18.401688
5347.05    54.759640    23.350554
5348.23    55.362129    23.019632
5349.40    66.495522    17.464132
5350.58    63.967300    14.658735
5351.76    60.821552    13.260321
5352.93    67.897514    14.368968
5354.11    77.723976    20.136761
5355.28    76.651344    19.156841
5356.46    69.387489    13.846465
5357.64    70.552750    12.033760
5358.81    84.789001    12.186351
5359.99    83.165123    11.370882
5361.16    67.778885    11.075859
5362.34    72.857956    14.898807
5363.52    72.947411    15.976598
5364.69    69.419106    13.396839
5365.87    76.225319    12.482393
5367.04    75.646141    16.775627
5368.22    79.493286    14.128855
5369.40    88.972649     6.026758
5370.57    83.425537    12.550388
5371.75    92.977585    16.895847
5372.92    100.312798    16.281403
5374.10    79.033791    19.945236
5375.28    101.851440    16.174589
5376.45    120.511078    11.457056
5377.63    90.607048    14.510334
5378.80    80.034241    18.824617
5379.98    74.770317    20.065432
5381.16    71.653137    18.947477
5382.33    91.123512    18.462704
5383.51    89.825974    16.386087
5384.69    78.300270    15.082721
5385.86    84.957619    17.446539
5387.04    84.076088    19.332211
5388.21    75.879768    15.634699
5389.39    75.711288     8.168850
5390.57    92.166389     5.995317
5391.74    102.284843     9.353267
5392.92    103.420609    13.289800
5394.09    107.056366    13.832355
5395.27    97.454155    14.963747
5396.45    91.963516    12.371297
5397.62    99.383362     7.637940
5398.80    84.023010    16.789036
5399.97    64.241425    22.219852
5401.15    70.409904    16.936411
5402.33    104.750099    16.183521
5403.50    112.819351    14.198254
5404.68    99.998924    10.633308
5405.85    101.150238    12.288440
5407.03    87.686630    21.053398
5408.21    68.074501    24.356766
5409.38    68.983505    16.756355
5410.56    96.201775    13.343615
5411.73    101.006660    15.264261
5412.91    84.905510    16.980406
5414.09    98.478806    14.666812
5415.26    104.223732    14.462693
5416.44    101.837219    16.163633
5417.61    113.082802    16.579464
5418.79    114.234657    19.369709
5419.97    110.627190    18.888853
5421.14    109.651749    14.159982
5422.32    98.430893    16.072845
5423.49    92.011253    15.662205
5424.67    99.418022    10.900563
5425.85    108.769852    10.875134
5427.02    99.563980    10.114004
5428.20    90.566742    10.610095
5429.37    105.607353    15.575279
5430.55    110.515373    13.563299
5431.73    103.875587    11.212691
5432.90    97.772644    16.251247
5434.08    92.053024    20.925018
5435.25    94.864883    19.278751
5436.43    102.024017    14.985417
5437.61    99.699783    16.994701
5438.78    104.572899    17.761593
5439.96    104.009972    15.807622
5441.14    83.578926    15.269444
5442.31    94.050964    13.600503
5443.49    104.138557    11.638536
5444.66    80.214340    13.826555
5445.84    73.159698    23.321850
5447.02    76.820312    23.783693
5448.19    76.937477    14.174873
5449.37    80.335899    15.665523
5450.54    79.737404    15.741815
5451.72    83.130524    10.693328
5452.90    99.659653    10.335566
5454.07    91.439255    12.623365
5455.25    80.884354    17.331495
5456.42    100.123978    26.925835
5457.60    107.080688    42.202187
5458.78    100.870987    53.550369
5459.95    96.337814    59.053806
5461.13    94.402931    70.531624
5462.30    96.566811    69.150703
5463.48    100.017799    48.698772
5464.66    100.697479    28.595211
5465.83    109.363525    23.227474
5467.01    111.611267    27.375473
5468.18    93.770630    26.393185
5469.36    101.907608    21.205091
5470.54    113.556343    19.348749
5471.71    100.804184    21.537138
5472.89    109.065834    14.588028
5474.06    111.777328    14.331882
5475.24    91.320137    26.328285
5476.42    85.599701    27.094986
5477.59    84.920670    21.284418
5478.77    87.313690    16.909939
5479.94    105.856392    14.920109
5481.12    113.096573    16.016903
5482.30    99.343803    18.213762
5483.47    83.661087    18.405006
5484.65    96.683762    16.744234
5485.82    108.164818    17.889736
5487.00    91.873154    21.976318
5488.18    95.685135    18.220858
5489.35    107.622330    14.878059
5490.53    109.652878    18.599503
5491.70    116.286064    20.662727
5492.88    118.419754    15.812183
5494.06    110.931114     9.993754
5495.23    103.446526    14.993851
5496.41    106.309631    23.500973
5497.59    117.177963    25.695587
5498.76    120.492081    20.429976
5499.94    98.725555    23.536034
5501.11    89.679413    26.261551
5502.29    120.551315    17.431629
5503.47    125.805840    17.287043
5504.64    111.052521    25.813311
5505.82    108.102760    28.954845
5506.99    117.315361    16.048332
5508.17    107.542496    13.299561
5509.35    86.129822    23.899887
5510.52    102.339050    16.226297
5511.70    113.042900    12.820733
5512.87    104.788177    20.247684
5514.05    108.359550    20.899845
5515.23    112.641212    22.827335
5516.40    107.636505    22.061493
5517.58    95.911209    12.822556
5518.75    90.621475    17.240528
5519.93    99.530762    25.793076
5521.11    113.542854    21.523117
5522.28    104.494385    16.042345
5523.46    90.000679    17.485922
5524.63    94.176765    24.318592
5525.81    111.877106    26.768806
5526.99    116.593468    25.022753
5528.16    107.130745    23.030569
5529.34    113.040276    22.595200
5530.51    123.661163    17.486118
5531.69    124.736931    13.086782
5532.87    113.801041    20.310814
5534.04    100.624680    23.177452
5535.22    97.631821    16.941917
5536.39    107.159492    11.018364
5537.57    108.232475    15.015377
5538.75    119.554932    21.900667
5539.92    145.506699    22.170900
5541.10    119.029366    22.340513
5542.27    104.123589    23.099039
5543.45    143.075562    21.583567
5544.63    141.749054    16.824827
5545.80    118.616234    15.346773
5546.98    111.905792    18.786036
5548.15    114.877403    20.483826
5549.33    103.746658    24.475008
5550.51    89.003456    25.973316
5551.68    103.632126    15.126294
5552.86    105.765739    13.956645
5554.04    93.679222    22.425005
5555.21    102.576385    21.672224
5556.39    118.280411    17.725283
5557.56    118.027527    18.732210
5558.74    101.018295    24.543776
5559.92    111.650841    21.711037
5561.09    128.054749    16.559393
5562.27    115.960785    19.155998
5563.44    102.307388    21.562569
5564.62    103.174591    20.165638
5565.80    113.958580    19.321726
5566.97    115.570496    27.298225
5568.15    118.483353    27.972654
5569.32    120.861267    19.225010
5570.50    101.810349    23.146175
5571.68    109.439529    22.942617
5572.85    141.853912    26.805866
5574.03    137.823074    72.778641
5575.20    124.710556    146.131271
5576.38    125.377663    206.387283
5577.56    132.176483    215.674057
5578.73    126.090363    181.444946
5579.91    118.092491    130.624863
5581.08    124.578201    87.816254
5582.26    113.457138    51.142517
5583.44    100.794563    25.264748
5584.61    110.506165    15.772024
5585.79    107.724045    14.541815
5586.96    105.994675    15.065221
5588.14    122.357536    15.592546
5589.32    127.833054    18.659500
5590.49    125.493713    19.653452
5591.67    122.971405    17.138588
5592.84    111.909042    18.335215
5594.02    102.474129    20.697983
5595.20    100.165649    21.878269
5596.37    97.188332    24.344442
5597.55    98.852051    27.227819
5598.72    105.931534    27.035198
5599.90    112.371910    21.329035
5601.08    124.366661    18.245907
5602.25    139.658401    17.889919
5603.43    146.381912    14.435900
5604.60    138.947021    15.959547
5605.78    129.653931    21.486509
5606.96    130.733078    23.660563
5608.13    119.073616    24.660328
5609.31    103.554680    24.902191
5610.49    103.085442    22.987484
5611.66    99.990211    19.145384
5612.84    105.622818    15.235215
5614.01    125.360146    14.334919
5615.19    118.352737    19.379120
5616.37    105.951538    25.273327
5617.54    113.514549    26.985111
5618.72    117.281700    26.585379
5619.89    119.431366    25.727251
5621.07    123.924759    25.826622
5622.25    120.783241    27.753450
5623.42    119.909149    27.057703
5624.60    124.809494    23.215240
5625.77    124.335983    21.670788
5626.95    125.171234    19.930494
5628.13    125.129555    18.960957
5629.30    112.278084    23.954952
5630.48    103.138420    29.177708
5631.65    107.313034    28.866499
5632.83    115.504196    22.944620
5634.01    104.576164    20.717165
5635.18    91.044373    21.998711
5636.36    103.063049    20.413885
5637.53    97.545624    20.501444
5638.71    95.878830    20.774645
5639.89    133.801636    17.649755
5641.06    137.558060    17.589003
5642.24    116.564095    20.542686
5643.41    115.780571    23.149540
5644.59    112.026344    26.398968
5645.77    104.988716    28.005146
5646.94    108.830009    26.399349
5648.12    125.393143    25.393253
5649.29    124.607307    24.669483
5650.47    102.253738    22.551193
5651.65    112.531609    19.789631
5652.82    115.585312    21.344774
5654.00    97.128006    25.158121
5655.17    127.684990    19.553335
5656.35    143.810669    16.145550
5657.53    118.211487    20.679987
5658.70    125.192375    21.274683
5659.88    126.501732    21.688839
5661.06    104.705627    24.855743
5662.23    102.632050    26.696150
5663.41    101.707993    27.023537
5664.58    95.994164    26.009689
5665.76    104.502998    23.363924
5666.94    110.191811    20.972090
5668.11    104.682274    23.254953
5669.29    98.308990    32.199520
5670.46    104.298386    35.300613
5671.64    108.346237    31.738260
5672.82    92.475250    31.006227
5673.99    98.236092    34.399586
5675.17    123.808640    33.056301
5676.34    135.042572    20.261665
5677.52    125.630074    12.224695
5678.70    104.246887    17.972000
5679.87    88.363480    32.171928
5681.05    96.521980    35.285816
5682.22    108.874062    30.072535
5683.40    108.373405    27.582443
5684.58    127.347931    25.372919
5685.75    128.655426    28.974346
5686.93    94.615173    35.864605
5688.10    110.656548    23.180092
5689.28    142.179550    12.626703
5690.46    136.899689    22.822521
5691.63    122.073204    29.677155
5692.81    109.007347    27.645529
5693.98    106.953201    23.268482
5695.16    129.074112    24.465832
5696.34    130.157089    28.253729
5697.51    100.207619    29.976942
5698.69    97.859673    29.985979
5699.86    105.886032    35.083241
5701.04    109.266472    37.697884
5702.22    123.666702    20.079336
5703.39    122.341133    17.471731
5704.57    106.252472    32.779049
5705.74    109.840805    26.158600
5706.92    103.031326    20.848070
5708.10    91.986938    25.996593
5709.27    116.668793    24.046318
5710.45    123.759941    27.215496
5711.62    116.370247    32.980602
5712.80    141.975555    26.098648
5713.98    135.145905    22.605713
5715.15    104.000053    26.205776
5716.33    114.397820    25.976467
5717.51    137.687958    19.673040
5718.68    139.504852    16.255840
5719.86    116.885101    22.817154
5721.03    120.771065    21.271515
5722.21    140.381409    17.247288
5723.39    135.835144    24.789135
5724.56    126.721352    27.217157
5725.74    123.892685    23.443245
5726.91    125.739449    22.070879
5728.09    129.445618    21.850195
5729.27    119.898941    20.556355
5730.44    95.603195    18.251396
5731.62    95.654434    18.928219
5732.79    112.838631    23.300724
5733.97    127.485855    27.197849
5735.15    147.219604    23.156376
5736.32    137.446381    22.069588
5737.50    101.475761    27.494396
5738.67    131.443802    17.917809
5739.85    154.969223    13.387424
5741.03    116.495117    25.032082
5742.20    108.858261    21.099545
5743.38    126.711853    12.262774
5744.55    135.041199    16.369555
5745.73    129.823868    29.657276
5746.91    125.859077    34.606091
5748.08    126.570946    26.035681
5749.26    116.474060    20.326260
5750.43    113.172409    20.739632
5751.61    123.264992    22.130047
5752.79    126.555809    18.519485
5753.96    120.572510    20.261173
5755.14    112.306534    29.547314
5756.31    110.959061    33.612015
5757.49    118.512932    25.792887
5758.67    129.770630    15.095306
5759.84    134.574997    18.529215
5761.02    125.890022    23.471258
5762.19    114.985909    21.982832
5763.37    121.418976    20.188251
5764.55    128.333923    26.883852
5765.72    130.127136    33.985912
5766.90    133.188950    28.842056
5768.07    119.454933    39.068867
5769.25    101.581154    54.110775
5770.43    107.057083    42.232277
5771.60    108.998322    36.489910
5772.78    105.105499    39.829498
5773.96    110.910416    31.889238
5775.13    109.131020    28.194878
5776.31    105.335564    30.034590
5777.48    110.454109    27.041115
5778.66    94.215591    21.231796
5779.84    87.684113    19.272758
5781.01    125.443298    23.904043
5782.19    135.391953    24.715221
5783.36    117.156830    24.407930
5784.54    108.635513    28.989655
5785.72    103.028900    30.125790
5786.89    103.033432    30.534241
5788.07    109.346336    36.629993
5789.24    101.776871    45.107685
5790.42    102.127457    47.479271
5791.60    121.813873    41.296173
5792.77    110.854691    38.912586
5793.95    102.135300    38.559196
5795.12    125.520607    33.708374
5796.30    126.856224    24.776001
5797.48    120.003143    15.599666
5798.65    131.099197    10.997505
5799.83    143.377747    14.399165
5801.00    140.942825    22.904280
5802.18    130.027405    28.273138
5803.36    138.217255    21.976404
5804.53    125.494423    20.576515
5805.71    90.248596    30.165394
5806.88    109.512779    29.723154
5808.06    131.701462    22.106041
5809.24    119.280151    17.922091
5810.41    116.363167    22.539795
5811.59    115.006500    29.360369
5812.76    104.864075    31.998411
5813.94    98.614479    29.923820
5815.12    106.557426    24.264397
5816.29    123.239433    19.131027
5817.47    127.301750    19.701435
5818.64    105.826981    21.733068
5819.82    83.988602    24.812628
5821.00    105.131241    31.491514
5822.17    121.111206    25.645931
5823.35    114.020226    15.993239
5824.52    115.918434    27.864254
5825.70    124.607567    28.705673
5826.88    132.128510    16.901201
5828.05    134.109833    22.362017
5829.23    127.059456    26.734856
5830.41    119.951248    25.042988
5831.58    124.463028    29.210304
5832.76    124.480331    31.462925
5833.93    121.084290    29.895815
5835.11    123.799843    29.287542
5836.29    109.786591    28.032959
5837.46    102.441528    24.507702
5838.64    133.251770    20.249115
5839.81    140.390442    22.249048
5840.99    118.061462    27.486263
5842.17    106.185143    28.841347
5843.34    119.588768    29.644850
5844.52    134.606705    29.848993
5845.69    122.876617    27.732456
5846.87    102.964798    26.064451
5848.05    101.213394    26.136349
5849.22    120.540268    25.992222
5850.40    115.917740    20.818661
5851.57    108.144279    20.077869
5852.75    126.773453    28.844833
5853.93    133.099808    27.080112
5855.10    131.598724    19.817902
5856.28    132.933929    21.176916
5857.45    109.907257    31.157915
5858.63    90.052620    39.127243
5859.81    96.749168    37.210445
5860.98    95.776909    31.235306
5862.16    94.050209    29.287519
5863.33    106.036896    31.322577
5864.51    119.481430    26.485962
5865.69    111.902100    29.059134
5866.86    92.140152    42.079788
5868.04    110.355728    38.520069
5869.21    132.073654    27.943968
5870.39    132.424820    23.399441
5871.57    142.687042    21.042223
5872.74    135.478729    24.160875
5873.92    116.413826    29.873703
5875.09    144.163971    26.376104
5876.27    151.163971    21.970152
5877.45    119.218552    22.865425
5878.62    125.457916    23.657305
5879.80    133.696945    19.172453
5880.98    118.729233    14.000925
5882.15    108.456100    19.947601
5883.33    113.223976    31.382122
5884.50    123.909798    38.952965
5885.68    122.290970    39.239082
5886.86    113.050003    46.505432
5888.03    101.835228    66.321793
5889.21    92.677155    86.478333
5890.38    101.997147    79.774376
5891.56    118.315071    55.171036
5892.74    114.959534    46.429443
5893.91    111.216110    45.921970
5895.09    108.313766    50.734211
5896.26    94.860840    61.236382
5897.44    95.073555    52.077694
5898.62    105.694611    33.957714
5899.79    105.583527    34.046741
5900.97    101.554893    33.362190
5902.14    95.996216    29.986244
5903.32    89.666039    32.316692
5904.50    96.073700    27.675695
5905.67    107.169937    21.783112
5906.85    106.952194    25.619736
5908.02    100.045998    27.774282
5909.20    102.021576    26.921455
5910.38    116.827362    27.630259
5911.55    116.541702    28.928854
5912.73    119.156563    30.349703
5913.90    136.273087    31.756128
5915.08    117.193779    32.409111
5916.26    91.779549    33.411106
5917.43    97.076134    36.150898
5918.61    100.504395    39.670212
5919.78    94.975792    35.198563
5920.96    91.985710    23.276005
5922.14    104.171249    22.638458
5923.31    120.642883    24.838793
5924.49    128.545090    22.066683
5925.66    128.373322    24.940027
5926.84    122.429131    28.871073
5928.02    123.192009    26.730843
5929.19    146.418823    19.910141
5930.37    146.600983    24.014078
5931.54    117.508339    36.564392
5932.72    117.910652    32.707741
5933.90    127.458344    26.726084
5935.07    123.448425    27.965260
5936.25    114.773079    27.283201
5937.43    117.605797    30.490236
5938.60    126.958672    35.008297
5939.78    122.352875    29.105705
5940.95    121.193916    22.365341
5942.13    121.833221    22.052061
5943.31    106.167793    26.226318
5944.48    101.867416    28.999901
5945.66    105.732307    30.114347
5946.83    93.933144    31.952391
5948.01    98.416229    27.049280
5949.19    113.649170    23.288536
5950.36    112.213654    31.439602
5951.54    121.031525    29.901764
5952.71    133.454056    26.694012
5953.89    125.959969    39.135361
5955.07    117.114792    39.709076
5956.24    112.041336    26.740942
5957.42    108.603188    17.637644
5958.59    118.553886    19.822632
5959.77    128.721970    27.388208
5960.95    123.905373    31.477318
5962.12    118.333176    32.044334
5963.30    108.369507    25.378454
5964.47    99.246506    15.938320
5965.65    125.900757    24.492111
5966.83    135.924042    33.652023
5968.00    103.229416    27.330132
5969.18    111.011955    23.783619
5970.35    137.465225    24.038143
5971.53    137.439072    24.645151
5972.71    113.924706    28.458174
5973.88    96.489326    31.798668
5975.06    101.647415    31.258982
5976.23    114.512161    28.905092
5977.41    116.494606    32.912605
5978.59    109.158310    38.189095
5979.76    111.819542    27.919384
5980.94    105.250145    20.806334
5982.11    91.111542    24.900438
5983.29    97.069191    26.320326
5984.47    103.573456    22.767551
5985.64    101.987778    22.111708
5986.82    104.814720    31.224611
5987.99    112.817833    29.436960
5989.17    121.452217    18.554771
5990.35    124.516785    17.934235
5991.52    118.072517    19.726736
5992.70    113.236992    21.362167
5993.88    120.664154    25.832333
5995.05    118.119530    27.359406
5996.23    103.607620    27.135082
5997.40    95.512047    27.892448
5998.58    112.369675    22.377865
5999.76    124.179741    18.043148
6000.93    106.295288    24.417940
6002.11    106.760948    32.849064
6003.28    122.384819    30.856197
6004.46    127.057617    18.598345
6005.64    117.777534    18.071848
6006.81    110.214905    20.831070
6007.99    114.096138    19.236591
6009.16    117.665970    28.480259
6010.34    119.757668    27.382673
6011.52    116.549973    12.534943
6012.69    98.577255    20.366798
6013.87    91.968216    26.535910
6015.04    109.334518    15.758685
6016.22    128.125854    10.862846
6017.40    124.499161    14.192364
6018.57    110.055893    19.894444
6019.75    122.178017    21.708757
6020.92    138.634598    16.435694
6022.10    138.743774    10.987393
6023.28    123.700043    16.889372
6024.45    108.563461    28.613697
6025.63    105.350708    32.632366
6026.80    117.497849    21.670700
6027.98    136.754745    17.205248
6029.16    135.053101    22.864901
6030.33    101.629211    26.960669
6031.51    99.705116    24.901531
6032.68    116.487770    21.806253
6033.86    114.874504    22.871574
6035.04    126.992188    21.903324
6036.21    128.055222    21.298033
6037.39    102.205864    23.172842
6038.56    111.121742    19.900536
6039.74    119.933640    18.648647
6040.92    100.426643    23.527353
6042.09    107.891876    23.054186
6043.27    119.299095    20.282774
6044.44    118.918396    19.181860
6045.62    137.094086    17.247528
6046.80    125.267799    20.486927
6047.97    87.683151    28.686855
6049.15    99.168404    31.707645
6050.33    105.478851    26.572718
6051.50    88.883018    22.025023
6052.68    96.104294    28.210503
6053.85    119.063652    24.557514
6055.03    130.798553    15.930224
6056.21    114.371681    22.747532
6057.38    96.945030    23.479712
6058.56    90.553635    17.579092
6059.73    92.507492    18.517406
6060.91    107.785927    18.601959
6062.09    125.888176    19.822010
6063.26    131.733749    24.821045
6064.44    125.076080    21.233757
6065.61    116.238228    16.775017
6066.79    115.186928    20.276793
6067.97    120.804604    22.184458
6069.14    118.010269    23.999023
6070.32    107.279831    26.207600
6071.49    113.261841    21.919371
6072.67    110.244385    23.281914
6073.85    96.055733    30.853310
6075.02    110.262444    26.457127
6076.20    125.509377    19.395378
6077.37    118.929138    19.013092
6078.55    103.158699    22.854980
6079.73    116.851639    20.321283
6080.90    139.216171    16.063911
6082.08    120.037910    22.294880
6083.25    101.662903    26.689283
6084.43    104.280701    24.432032
6085.61    113.495461    21.049212
6086.78    108.245201    23.111744
6087.96    97.595055    22.987280
6089.13    95.199852    15.155201
6090.31    86.137413    15.127576
6091.49    75.880394    20.299480
6092.66    75.225388    22.085644
6093.84    81.914146    20.615629
6095.01    87.145714    20.390062
6096.19    89.500816    21.999422
6097.37    97.968246    19.970669
6098.54    105.393707    16.728540
6099.72    103.148148    15.979165
6100.89    92.298920    18.277328
6102.07    92.876511    18.723761
6103.25    101.160461    19.206282
6104.42    97.027306    24.659672
6105.60    95.127434    25.218733
6106.78    101.036766    21.673899
6107.95    110.124535    20.199003
6109.13    122.890816    14.504986
6110.30    122.368660    12.911064
6111.48    101.780083    21.563446
6112.66    94.909615    22.903006
6113.83    97.213150    20.993881
6115.01    100.861931    22.189667
6116.18    121.385834    18.505777
6117.36    125.806801    17.996141
6118.54    102.567413    21.129875
6119.71    90.198357    14.652870
6120.89    97.889084    13.185534
6122.06    111.094124    20.072748
6123.24    111.209770    20.748613
6124.42    117.467728    16.050343
6125.59    124.835152    14.274522
6126.77    114.046890    20.379099
6127.94    107.816460    21.679741
6129.12    118.179688    17.100840
6130.30    134.107452    15.164335
6131.47    126.155052    20.951630
6132.65    109.923874    21.380917
6133.82    109.765816    12.424981
6135.00    117.964020    17.849020
6136.18    115.755508    25.354143
6137.35    101.009804    23.241545
6138.53    94.639999    22.640491
6139.70    93.326378    28.713446
6140.88    89.950508    36.031891
6142.06    89.094444    34.030228
6143.23    117.409554    26.693007
6144.41    145.531525    20.584076
6145.58    127.240540    18.599167
6146.76    117.249573    16.199461
6147.94    125.605408    15.253684
6149.11    126.916824    18.388865
6150.29    114.604004    19.406122
6151.46    104.848518    20.938116
6152.64    110.440109    24.743795
6153.82    121.391029    23.243629
6154.99    131.677582    15.216980
6156.17    127.158562    10.744914
6157.35    95.760521    22.522526
6158.52    95.942467    25.622400
6159.70    124.812256    16.724525
6160.87    123.192314    16.535183
6162.05    119.880325    15.947592
6163.23    118.801315    15.429593
6164.40    106.084457    20.405739
6165.58    106.558876    18.916666
6166.75    112.361252    17.740093
6167.93    105.360474    23.510153
6169.11    94.527397    21.693003
6170.28    111.422188    18.780745
6171.46    144.200760    20.877565
6172.63    127.762825    20.889519
6173.81    101.824234    21.988937
6174.99    98.062225    22.941256
6176.16    104.527756    17.891438
6177.34    119.724472    15.369379
6178.51    127.543610    15.952550
6179.69    113.591629    14.869732
6180.87    103.338921    16.911156
6182.04    96.706070    19.105200
6183.22    91.966629    16.752556
6184.39    113.465294    13.204191
6185.57    123.487358    14.249134
6186.75    100.942673    18.826681
6187.92    85.999756    17.737621
6189.10    96.280510    14.937176
6190.27    114.262711    15.061433
6191.45    111.068748    17.481483
6192.63    114.307899    17.559149
6193.80    116.516762    17.224920
6194.98    97.575195    20.810961
6196.15    96.193596    23.932968
6197.33    107.368683    21.598457
6198.51    114.851257    15.494682
6199.68    130.533264    15.976425
6200.86    121.962700    16.358290
6202.03    93.508873    14.881582
6203.21    101.601547    20.992012
6204.39    103.851692    21.793064
6205.56    94.103607    16.806204
6206.74    108.742134    17.223320
6207.91    120.225723    14.388175
6209.09    111.614998    12.396223
6210.27    93.179474    17.368814
6211.44    93.634544    16.454163
6212.62    101.627510    13.631287
6213.80    102.757431    14.864576
6214.97    107.783485    15.473490
6216.15    112.564735    17.119097
6217.32    109.795998    21.119194
6218.50    102.578636    24.095945
6219.68    117.256485    18.286165
6220.85    124.605003    14.610395
6222.03    90.986916    24.323643
6223.20    83.635536    23.955835
6224.38    98.850479    17.938570
6225.56    106.970337    17.212526
6226.73    114.756989    14.306141
6227.91    116.100243    15.908186
6229.08    109.033890    20.995777
6230.26    104.390350    17.592255
6231.44    112.124054    16.309488
6232.61    118.621185    19.293171
6233.79    104.141037    21.916674
6234.96    85.354286    32.096581
6236.14    84.802971    37.756062
6237.32    99.436378    30.099752
6238.49    91.558311    26.401201
6239.67    93.114334    22.776197
6240.84    108.009544    18.981993
6242.02    91.710388    24.960884
6243.20    90.263786    25.771275
6244.37    107.492531    16.525644
6245.55    109.222519     8.159303
6246.72    111.256653    12.824607
6247.90    116.021141    16.218439
6249.08    115.673119     9.270845
6250.25    108.512543    14.103229
6251.43    101.673691    18.037577
6252.60    96.973419    13.990155
6253.78    90.034676    15.305717
6254.96    91.530197    19.323984
6256.13    101.701698    23.785055
6257.31    110.099495    28.375893
6258.48    108.701172    28.693470
6259.66    90.189445    26.221977
6260.84    74.734215    23.412794
6262.01    106.143753    18.868921
6263.19    113.697647    13.599916
6264.36    91.924957    11.009757
6265.54    114.788589    13.688727
6266.72    130.410156    16.273550
6267.89    118.480896    15.588198
6269.07    102.049339    13.808306
6270.25    99.332664    17.105591
6271.42    102.923157    20.786581
6272.60    104.797501    19.223858
6273.77    110.159828    14.360941
6274.95    111.795052    13.420772
6276.13    104.857742    17.513142
6277.30    91.566231    20.906384
6278.48    78.252838    19.220251
6279.65    81.881943    16.752026
6280.83    102.882484    17.825136
6282.01    106.666199    18.050081
6283.18    92.400597    15.627596
6284.36    80.979530    15.103782
6285.53    91.508591    21.886784
6286.71    105.939262    24.609198
6287.89    103.394928    25.862831
6289.06    85.166512    31.031807
6290.24    85.802292    25.225340
6291.41    93.696335    16.740482
6292.59    90.301506    16.839699
6293.77    83.291824    22.024759
6294.94    90.560585    22.142458
6296.12    102.666122    35.126701
6297.29    101.317032    82.646179
6298.47    111.047470    128.664536
6299.65    129.356491    150.898788
6300.82    127.614243    141.662552
6302.00    84.062729    101.364647
6303.17    70.038887    58.567459
6304.35    101.871429    33.585716
6305.53    119.358910    27.058596
6306.70    99.961449    32.328770
6307.88    89.468918    30.389917
6309.05    111.881447    16.138485
6310.23    99.626770    16.022781
6311.41    82.493004    19.791044
6312.58    86.357498    19.010456
6313.76    91.400314    20.643934
6314.93    91.589195    20.022388
6316.11    94.806152    14.089577
6317.29    102.833214     7.981398
6318.46    96.996132    13.297228
6319.64    93.285767    17.341286
6320.81    90.542221    16.057661
6321.99    67.507050    20.954458
6323.17    64.822029    20.138594
6324.34    81.335983    13.697620
6325.52    90.099236    12.925928
6326.70    93.867264    22.817799
6327.87    92.875343    26.248060
6329.05    87.867500    20.974754
6330.22    84.282921    24.487299
6331.40    89.510727    21.426586
6332.58    97.066940    13.971819
6333.75    98.007271    13.777270
6334.93    98.865967    14.149117
6336.10    100.746567    11.435197
6337.28    96.656387    10.090839
6338.46    82.106705    15.448161
6339.63    80.520447    12.623267
6340.81    83.210098     9.688005
6341.98    76.144218    17.292912
6343.16    83.328178    16.348299
6344.34    93.131218    13.593407
6345.51    96.178604    15.047758
6346.69    99.860252    15.344514
6347.86    97.285278    18.793983
6349.04    92.032143    20.718081
6350.22    91.008240    16.519882
6351.39    92.850555    14.195078
6352.57    109.474449    14.092424
6353.74    122.616035    17.607983
6354.92    101.224190    24.756554
6356.10    85.396751    20.013817
6357.27    84.082329    15.211492
6358.45    83.272133    24.050407
6359.62    78.707222    34.149628
6360.80    79.433701    38.685440
6361.98    68.046356    51.341133
6363.15    40.574848    76.706619
6364.33    82.838989    61.812862
6365.50    116.330879    35.581665
6366.68    81.815811    31.065578
6367.86    60.976509    25.138657
6369.03    56.020950    17.973024
6370.21    65.988121    11.673846
6371.38    88.691895     7.071687
6372.56    89.413605    10.065125
6373.74    81.668922    14.306478
6374.91    81.006165    13.878689
6376.09    82.184799    10.349535
6377.27    89.658455     7.070502
6378.44    84.223831    11.602525
6379.62    63.724689    20.007202
6380.79    72.483994    12.261959
6381.97    89.355438    10.911885
6383.15    89.887726    17.130390
6384.32    78.420319    12.622969
6385.50    79.205383    14.660297
6386.67    78.823135    18.711990
6387.85    72.003838    16.988876
6389.03    81.572388    14.850924
6390.20    89.807930    12.453405
6391.38    91.346054    12.544262
6392.55    92.157074    15.803505
6393.73    88.796867    15.023300
6394.91    83.262146    13.639930
6396.08    79.832191    12.736620
6397.26    78.403465    11.188780
6398.43    70.440193    18.007172
6399.61    75.117462    21.620518
6400.79    95.946930    14.029532
6401.96    101.216736     7.556028
6403.14    92.683838     8.775343
6404.31    83.346786    12.533986
6405.49    82.528038    12.144921
6406.67    87.387512    11.260305
6407.84    82.457176    10.796463
6409.02    79.125900    11.141430
6410.19    92.244904    13.245302
6411.37    76.887283    16.579712
6412.55    74.586601    15.790247
6413.72    95.060524    11.958679
6414.90    78.192490    13.368137
6416.07    80.447281    13.784405
6417.25    86.896790    11.046793
6418.43    68.726730     9.822426
6419.60    73.674057    14.330349
6420.78    88.882248    12.447746
6421.95    89.093567     9.444880
6423.13    76.325439    16.885300
6424.31    86.861046    19.007704
6425.48    99.119728    11.706043
6426.66    83.903816     8.620495
6427.83    54.612625    20.404985
6429.01    75.661850    17.784122
6430.19    91.024994     8.659138
6431.36    67.792534     9.056331
6432.54    72.422935    13.484875
6433.72    72.576035    17.079163
6434.89    74.405563    17.969923
6436.07    93.182335    16.193287
6437.24    94.466103    13.203711
6438.42    82.713997    14.505920
6439.60    79.002113    15.533946
6440.77    87.736916    11.283773
6441.95    79.859291    12.024764
6443.12    65.512527     9.650370
6444.30    62.647495     6.159630
6445.48    72.215935    11.847080
6446.65    75.828598    14.542509
6447.83    66.373703    13.411980
6449.00    56.904903    13.069472
6450.18    64.390877    14.175520
6451.36    70.876381    11.831711
6452.53    72.513206     9.763376
6453.71    74.041557     9.973001
6454.88    75.646439     7.559645
6456.06    76.498306     7.513877
6457.24    79.501663    11.664907
6458.41    85.828186    15.014675
6459.59    90.032364    10.944691
6460.76    87.245285     7.482318
6461.94    76.298393    10.537042
6463.12    64.431915    16.735365
6464.29    66.264214    16.916048
6465.47    78.629768    15.202328
6466.64    72.930374    15.079061
6467.82    51.289772    15.878566
6469.00    82.999741    16.848177
6470.17    91.305916    16.818773
6471.35    72.236214    17.320900
6472.52    85.501427    18.346842
6473.70    83.340012    12.510966
6474.88    75.332184     3.742418
6476.05    79.396683     1.483378
6477.23    84.426315     8.086851
6478.40    68.014671     9.690516
6479.58    74.840759     9.054695
6480.76    95.085251    12.886261
6481.93    76.769501    18.181219
6483.11    76.820923    11.987751
6484.28    76.405609     7.672073
6485.46    64.373199    11.359605
6486.64    69.758881    12.642962
6487.81    78.314163    14.831672
6488.99    76.358315    10.820136
6490.17    67.179802     7.595190
6491.34    65.072693    18.155046
6492.52    71.854645    13.043340
6493.69    74.794174    11.006410
6494.87    70.662689    19.239290
6496.05    69.310799    15.360404
6497.22    67.073845    19.084587
6498.40    66.133774    21.278809
6499.57    70.816391    18.101831
6500.75    79.583656    23.173107
6501.93    83.504990    22.616009
6503.10    92.804855    15.699688
6504.28    103.221756    12.110134
6505.45    91.365776    16.368305
6506.63    64.684509    16.367737
6507.81    65.961632    17.329372
6508.98    89.671455    18.558958
6510.16    86.918175    11.164132
6511.33    80.182991     9.715557
6512.51    81.833855    14.517563
6513.69    84.924553    16.832031
6514.86    80.102356    13.352299
6516.04    75.492653    13.841153
6517.21    75.834351    12.237812
6518.39    76.738144     7.452612
6519.57    72.644966     7.576786
6520.74    70.769691    11.303072
6521.92    78.368294    14.013231
6523.09    86.652954    13.777946
6524.27    82.081375    12.929372
6525.45    73.232376    14.316585
6526.62    74.618233    11.579646
6527.80    77.214279     9.382269
6528.97    70.200699    14.635110
6530.15    72.816338    17.565405
6531.33    68.360397    22.842674
6532.50    65.322868    27.598722
6533.68    77.659203    24.220007
6534.85    83.148468    15.952468
6536.03    81.877502    13.242846
6537.21    87.666542    11.786203
6538.38    92.771278     7.990286
6539.56    71.841530    11.533826
6540.73    72.234337    15.117106
6541.91    76.242615    13.963458
6543.09    64.406105    10.845047
6544.26    68.498962    11.341252
6545.44    87.083572    14.645702
6546.62    96.408890    13.239732
6547.79    88.382973     7.272263
6548.97    78.205780     6.356503
6550.14    72.806839    12.976337
6551.32    65.350929    17.309425
6552.50    64.856766    18.595581
6553.67    79.154732    21.089720
6554.85    81.629433    16.047604
6556.02    85.861488     9.255599
6557.20    85.781487     8.829990
6558.38    76.995132    12.003996
6559.55    85.079224     7.861845
6560.73    72.979980     8.740654
6561.90    59.068352    13.475313
6563.08    65.528191    13.832349
6564.26    71.976387    11.685209
6565.43    90.836761    16.148352
6566.61    93.802834    16.624603
6567.78    82.429497    10.000356
6568.96    84.005608     7.843516
6570.14    66.133362    11.052607
6571.31    65.850960    15.114855
6572.49    78.170403    15.612617
6573.66    71.200401    12.095626
6574.84    66.312485     9.079175
6576.02    67.011642    10.687932
6577.19    75.167938    14.079519
6578.37    80.610840    14.964266
6579.54    68.730858    14.037768
6580.72    68.213181    14.294797
6581.90    68.620941     9.682589
6583.07    66.640343     8.160975
6584.25    74.437973    17.674770
6585.42    76.923882    13.004623
6586.60    81.907486     8.539878
6587.78    80.068184     8.809373
6588.95    65.665543     8.028595
6590.13    61.213951    11.027920
6591.30    60.264469    13.877387
6592.48    63.261921    13.193474
6593.66    69.911194    12.175392
6594.83    70.016182    16.984375
6596.01    59.879829    24.351995
6597.19    74.090668    17.620279
6598.36    92.894630     9.809630
6599.54    80.804680    17.075378
6600.71    68.943512    19.470863
6601.89    82.118584    16.745867
6603.07    80.487183    14.199476
6604.24    60.874920    14.101475
6605.42    70.994362    14.220103
6606.59    82.142029    11.405441
6607.77    80.064758    12.650161
6608.95    69.652275    15.122974
6610.12    66.169197    12.938538
6611.30    77.223297    11.358435
6612.47    69.931969     9.724751
6613.65    61.877811     8.767358
6614.83    66.783615     9.108218
6616.00    67.999245    10.699657
6617.18    68.414619    14.509844
6618.35    70.621674    13.220757
6619.53    72.249001     8.603592
6620.71    75.609085     6.996981
6621.88    80.982674     8.453859
6623.06    60.006771    11.323928
6624.23    62.461945    11.556988
6625.41    88.389542     9.607340
6626.59    85.362411    10.898399
6627.76    66.192566    16.122904
6628.94    70.940704    10.422878
6630.11    77.744720     5.806404
6631.29    70.327515     7.826561
6632.47    68.702141     4.137788
6633.64    58.954060     6.633054
6634.82    70.053604     8.384758
6635.99    91.809395     8.250832
6637.17    92.104904     8.933464
6638.35    74.973412     7.743680
6639.52    64.715370    11.566872
6640.70    65.077560    12.354353
6641.87    67.247765    11.432482
6643.05    72.214073    12.957315
6644.23    85.844414     7.486837
6645.40    66.736107    10.494295
6646.58    54.769218    12.480900
6647.75    67.044273    10.041471
6648.93    68.093369    12.014675
6650.11    64.735291     8.362276
6651.28    58.008934     5.580852
6652.46    57.349964     6.997633
6653.64    63.968376     9.238736
6654.81    62.808693    10.712816
6655.99    52.185516    14.898303
6657.16    70.908478    11.233482
6658.34    79.684196     5.888405
6659.52    59.565266     8.743601
6660.69    64.870377    13.020447
6661.87    70.449722     9.210808
6663.04    71.619133     9.150590
6664.22    74.570091    10.762963
6665.40    79.459030     7.712571
6666.57    80.422157     6.951998
6667.75    75.734207     7.593527
6668.92    77.469940     8.672121
6670.10    81.516380     8.862456
6671.28    78.562508     9.194316
6672.45    72.436646    11.836064
6673.63    62.178661    10.857673
6674.80    66.059982     9.389238
6675.98    78.459839     8.600280
6677.16    78.200630     8.080853
6678.33    66.301926    10.508091
6679.51    63.467152    13.444901
6680.68    64.586937    13.564923
6681.86    79.175529     8.669588
6683.04    88.022629     5.224074
6684.21    54.087811    10.689260
6685.39    64.608368     7.812842
6686.56    57.250114     5.666006
6687.74    41.858570     7.648703
6688.92    56.242649     9.280993
6690.09    61.448402    11.044176
6691.27    82.208664     8.811434
6692.44    78.468407     7.896793
6693.62    69.121605     7.397384
6694.80    76.133598     4.545769
6695.97    67.019264     3.786420
6697.15    57.789543     8.182982
6698.32    59.254829     7.709567
6699.50    62.776402     5.890752
6700.68    63.353756     8.739179
6701.85    65.948494    11.020630
6703.03    65.890533     8.489519
6704.20    67.462372     8.846852
6705.38    66.824837    10.442394
6706.56    57.904320     9.677716
6707.73    48.997726     7.966322
6708.91    56.436382     6.220319
6710.09    58.295547     6.123307
6711.26    56.542675     8.837263
6712.44    59.386051    11.472902
6713.61    69.265663    10.860958
6714.79    80.727791     8.448702
6715.97    62.176491     5.881254
6717.14    54.478897     8.288025
6718.32    64.540901    11.879947
6719.49    62.127499    11.929334
6720.67    48.324486    11.103958
6721.85    54.296368     9.299942
6723.02    58.664097     9.124932
6724.20    61.102238     8.109893
6725.37    61.790634     7.224010
6726.55    54.968639     9.007873
6727.73    59.305325     8.584227
6728.90    59.380833    12.661060
6730.08    68.232193     9.233370
6731.25    67.278145     5.410557
6732.43    50.443226    10.294041
6733.61    61.536430     9.110970
6734.78    70.051598     9.756195
6735.96    66.724297     9.207314
6737.13    63.517975     7.147799
6738.31    63.700325     5.671012
6739.49    59.931889     7.081826
6740.66    56.233616    13.766273
6741.84    55.720291     9.447603
6743.01    44.768158    11.165777
6744.19    43.940388    11.714474
6745.37    62.808758     2.547091
6746.54    61.888668     6.630681
6747.72    48.644218     8.154222
6748.89    53.267822     7.830831
6750.07    78.443863     5.178901
6751.25    72.918694     5.054338
6752.42    35.533588    12.404497
6753.60    60.675003    14.613773
6754.77    69.198441     7.346452
6755.95    52.960217     4.562023
6757.13    59.000778     6.700326
6758.30    69.670860     8.643103
6759.48    45.029900    11.001891
6760.65    53.311302     7.660704
6761.83    49.494625     6.673652
6763.01    52.496044     7.025225
6764.18    64.593460     7.256953
6765.36    63.626560     8.042624
6766.54    62.052212     7.981682
6767.71    61.207603     8.837811
6768.89    59.869358     8.958837
6770.06    54.509518     9.475060
6771.24    53.010632     9.918260
6772.42    59.637543     8.865968
6773.59    61.880322     8.052911
6774.77    63.259495     6.877127
6775.94    59.813175     3.076926
6777.12    51.236053     6.331489
6778.30    42.860710    13.188075
6779.47    42.648758    12.903563
6780.65    53.852749    12.144414
6781.82    60.122421    10.213738
6783.00    46.035076    10.994654
6784.18    45.680496    12.249958
6785.35    58.824261     7.870130
6786.53    50.482063     5.693853
6787.70    38.165604    15.892762
6788.88    47.774273     6.649629
6790.06    63.450470     5.913259
6791.23    66.134422     9.186680
6792.41    56.569817     8.599766
6793.58    53.917641    12.201194
6794.76    63.398422    10.350617
6795.94    45.493542     6.298170
6797.11    47.992813     7.577735
6798.29    57.240520     6.050147
6799.46    51.754829     4.898646
6800.64    49.357185     9.163952
6801.82    56.568935     6.195948
6802.99    63.046974     3.556296
6804.17    65.047516     1.210240
6805.34    60.826244     2.298804
6806.52    55.653584     4.226748
6807.70    56.698990     4.171379
6808.87    60.986465     6.973305
6810.05    59.070530     9.988411
6811.22    52.271828     7.513391
6812.40    44.244869     4.618012
6813.58    48.096447     3.607913
6814.75    54.512154     4.673224
6815.93    47.982464     6.965977
6817.10    54.435959     4.175425
6818.28    53.555702     5.478916
6819.46    60.327728     5.401033
6820.63    59.109531     5.827520
6821.81    54.060974     6.719688
6822.99    59.572315     6.326755
6824.16    48.414063    10.850183
6825.34    50.217892    10.390759
6826.51    55.099342    11.180965
6827.69    45.099644    23.983027
6828.87    43.142624    25.427292
6830.04    55.085342    13.035861
6831.22    54.092190    14.903734
6832.39    59.337757     7.359552
6833.57    48.868107    12.697750
6834.75    48.591331    14.561165
6835.92    54.967575    10.014929
6837.10    57.072655     9.219399
6838.27    57.201885     9.888381
6839.45    45.488785     8.037180
6840.63    38.571510     8.672215
6841.80    54.179695     9.556614
6842.98    64.800842     6.683240
6844.15    65.826462     2.455793
6845.33    58.882923     4.575856
6846.51    40.040302    10.001152
6847.68    41.163364     5.307151
6848.86    50.789860     6.150353
6850.03    50.091553     8.427485
6851.21    47.245174     9.818414
6852.39    48.468037     9.340255
6853.56    45.661575     8.076622
6854.74    45.606415     8.962355
6855.91    61.964806     7.033984
6857.09    44.542343     8.730499
6858.27    38.889275     7.567645
6859.44    41.788300     8.463159
6860.62    43.022953    11.809695
6861.79    44.507027    18.488869
6862.97    37.195164    27.895538
6864.15    51.807838    14.319045
6865.32    36.833088    14.455021
6866.50    39.326038     9.960598
6867.67    39.082104     5.324240
6868.85    27.137758     7.335687
6870.03    29.001955     5.435821
6871.20    23.761610     5.130594
6872.38    18.018129    10.866074
6873.56    24.077093     6.425479
6874.73    38.256012     5.562975
6875.91    44.380657     3.969045
6877.08    44.623608     3.087420
6878.26    40.546146     7.246556
6879.44    30.057089     4.886233
6880.61    41.860016     5.535133
6881.79    44.157372    10.128597
6882.96    46.211441     5.268531
6884.14    40.825676     8.072604
6885.32    31.530592    10.169918
6886.49    33.169506     3.727330
6887.67    37.004601     8.316464
6888.84    34.939674     8.985736
6890.02    39.265099     9.936545
6891.20    38.526089     9.170703
6892.37    35.637238     9.840671
6893.55    34.473064     8.524565
6894.72    36.225227     3.841484
6895.90    43.004707     3.277557
6897.08    45.099319     6.942757
6898.25    34.260464     9.572671
6899.43    33.514297    11.938730
6900.60    32.549088    10.067093
6901.78    44.347103     6.388478
6902.96    45.682022     9.136181
6904.13    30.068596    12.619905
6905.31    41.047058     6.769112
6906.48    32.798820     6.034532
6907.66    48.243603     3.894631
6908.84    43.104771     1.406790
6910.01    23.088648     9.580853
6911.19    32.718109    15.386719
6912.36    45.770817     8.723979
6913.54    31.272289     5.148993
6914.72    41.915413     8.987410
6915.89    49.342113     8.249602
6917.07    31.630255     7.429694
6918.24    32.952698     4.962461
6919.42    37.747555     4.380253
6920.60    35.694008     7.170835
6921.77    40.939228     9.424332
6922.95    38.180958    11.264153
6924.12    30.950752    13.937483
6925.30    41.224953    12.248002
6926.48    50.507614     3.909578
6927.65    38.824032     2.609213
6928.83    34.769867     3.857122
6930.01    42.499584     3.235106
6931.18    47.255409     5.499336
6932.36    54.659569     5.869112
6933.53    40.722359     3.124358
6934.71    40.478222     3.453615
6935.89    45.322292     6.733969
6937.06    31.074203     9.484374
6938.24    19.475502     6.773024
6939.41    33.055252     6.185907
6940.59    39.714417    10.059601
6941.77    26.384737     5.618209
6942.94    45.526299     3.735703
6944.12    33.989861     9.195639
6945.29    39.444157     2.463785
6946.47    39.396965    10.928733
6947.65    32.370953    14.812699
6948.82    37.436943     9.331004
6950.00    39.203667    12.466947
6951.17    38.887089     5.675021
6952.35    48.617954     6.869395
6953.53    21.119532     7.304667
6954.70    29.305553     4.977173
6955.88    42.143299     2.585174
6957.05    28.635954     5.379524
6958.23    22.457920     8.114800
6959.41    34.328457     5.184172
6960.58    32.992558     4.155078
6961.76    27.784264     6.010953
6962.93    48.404358     3.303739
6964.11    50.017906     4.077211
6965.29    35.590294     6.561280
6966.46    33.177402     3.287527
6967.64    35.905682     7.016188
6968.81    38.146881    14.060295
6969.99    46.587448     8.387037
6971.17    41.754684     7.985950
6972.34    33.210434     6.150953
6973.52    36.085251     6.463582
6974.69    30.086876     8.518262
6975.87    35.070702     4.622838
6977.05    35.460365     5.004934
6978.22    31.965240     9.647882
6979.40    36.657436     9.126079
6980.57    28.399986     9.881981
6981.75    42.703941     6.178723
6982.93    34.057804     4.533055
6984.10    22.311123     9.207549
6985.28    38.036152     7.685999
6986.46    42.444267     2.550994
6987.63    32.704449     3.025741
6988.81    34.947147     5.061844
6989.98    34.205070     3.951843
6991.16    27.881769     5.045664
6992.34    29.481512     5.188171
6993.51    35.166962     2.315425
6994.69    36.667809     3.189033
6995.86    39.523453     4.397145
6997.04    47.193039     3.347820
6998.22    44.002415     3.326897
6999.39    34.426945     3.858494
7000.57    33.999699     3.035479
7001.74    26.958179     4.987715
7002.92    46.274429     6.979862
7004.10    32.622261     5.566133
7005.27    34.413216     4.098933
7006.45    38.121227     4.443160
7007.62    28.623251     8.523664
7008.80    26.781572     8.363808
7009.98    33.792950     4.097497
7011.15    39.214664     6.927754
7012.33    34.370953     3.044377
7013.50    19.846859     5.503001
7014.68    25.562777     6.397336
7015.86    34.432102     4.731242
7017.03    41.252041     3.177433
7018.21    34.759941     3.492470
7019.38    23.912210     5.919992
7020.56    30.711288     5.030842
7021.74    36.293556    -0.138744
7022.91    35.272999     1.927779
7024.09    27.239056     1.923050
7025.26    33.014389     3.722410
7026.44    33.628666     3.006428
7027.62    24.252077     5.251766
7028.79    24.420628     6.256591
7029.97    28.971321     3.695774
7031.14    29.251432     3.796209
7032.32    37.170818     3.146413
7033.50    30.446033     6.875434
7034.67    22.232792     7.336863
7035.85    26.208549     4.642486
7037.02    29.943771     3.645137
7038.20    34.112175     4.715560
7039.38    37.901833     4.636004
7040.55    31.425243     4.029058
7041.73    28.896252     3.659066
7042.91    39.970276     1.992725
7044.08    27.417656     3.911862
7045.26    24.217228     5.216722
7046.43    31.244743     2.417687
7047.61    34.244835     3.306225
7048.79    29.486752     3.188318
7049.96    26.697729     1.824682
7051.14    23.895168     4.080036
7052.31    18.848398     6.073571
7053.49    22.292421     3.578737
7054.67    28.665949     0.023515
7055.84    46.696194     1.581501
7057.02    31.751156     3.800553
7058.19    26.036964     3.839298
7059.37    27.701550     5.051622
7060.55    25.606634     3.060838
7061.72    35.677296     1.732970
7062.90    37.059521     5.462511
7064.07    12.268759     4.927372
7065.25    18.927328     4.999633
