#Wavelength     Flux
#[Angstrom]   [Counts]
3923.59     0.000000
3925.22     0.000000
3926.84     0.000000
3928.46     0.000000
3930.09     0.000000
3931.71     0.000000
3933.34     0.000000
3934.96     0.000000
3936.58     0.000000
3938.21    -350.547400
3939.83    2132.647000
3941.46    1283.941000
3943.08    648.477900
3944.70    501.276400
3946.33    572.173100
3947.95    471.911900
3949.58    499.129900
3951.20    454.403300
3952.82    304.630200
3954.45    411.167900
3956.07    368.527800
3957.70    476.426900
3959.32    448.079700
3960.94    495.893900
3962.57    655.888400
3964.19    487.960800
3965.82    475.543500
3967.44    617.495400
3969.06    771.581900
3970.69    686.196400
3972.31    954.519200
3973.94    681.138700
3975.56    496.301800
3977.18    653.366800
3978.81    641.153300
3980.43    577.552600
3982.06    599.101400
3983.68    593.701400
3985.30    451.693100
3986.93    585.959700
3988.55    740.615700
3990.18    797.383100
3991.80    738.866200
3993.43    662.058600
3995.05    567.299800
3996.67    616.247900
3998.30    672.989900
3999.92    553.759900
4001.55    661.264100
4003.17    676.177300
4004.79    567.941800
4006.42    618.855200
4008.04    584.134000
4009.67    534.691200
4011.29    532.759300
4012.91    444.791100
4014.54    422.412200
4016.16    512.505900
4017.79    738.619800
4019.41    533.336100
4021.03    432.233800
4022.66    647.905900
4024.28    688.510300
4025.91    609.366000
4027.53    550.707500
4029.15    569.243500
4030.78    531.897300
4032.40    688.417800
4034.03    591.020300
4035.65    636.392000
4037.27    788.458600
4038.90    671.136000
4040.52    737.935000
4042.15    559.051800
4043.77    525.621600
4045.39    742.868900
4047.02    778.996200
4048.64    565.671300
4050.27    640.321700
4051.89    573.733800
4053.51    335.973400
4055.14    302.001200
4056.76    526.312100
4058.39    545.649000
4060.01    498.944700
4061.64    536.935900
4063.26    427.454200
4064.88    636.696500
4066.51    732.557100
4068.13    714.606300
4069.76    745.258900
4071.38    839.322900
4073.00    572.245700
4074.63    581.448600
4076.25    702.260000
4077.88    750.067900
4079.50    665.552200
4081.12    612.554000
4082.75    668.708600
4084.37    556.926900
4086.00    526.423300
4087.62    430.912200
4089.24    460.862600
4090.87    439.586200
4092.49    419.924100
4094.12    403.059000
4095.74    365.432400
4097.36    553.002100
4098.99    520.882400
4100.61    546.420600
4102.24    521.843600
4103.86    628.590800
4105.48    729.842300
4107.11    705.305900
4108.73    819.249000
4110.36    738.510100
4111.98    798.042400
4113.60    767.108800
4115.23    839.937000
4116.85    657.895500
4118.48    902.207800
4120.10    833.273900
4121.73    827.276200
4123.35    921.100600
4124.97    903.575200
4126.60    857.461900
4128.22    889.770600
4129.85    1027.792000
4131.47    754.949300
4133.09    671.645000
4134.72    755.203800
4136.34    804.630500
4137.97    1005.425000
4139.59    958.539000
4141.21    745.173600
4142.84    818.670500
4144.46    930.223500
4146.09    777.028800
4147.71    809.738500
4149.33    787.078400
4150.96    732.874000
4152.58    831.445300
4154.21    899.671400
4155.83    894.151400
4157.45    822.971100
4159.08    810.444000
4160.70    661.486200
4162.33    787.865400
4163.95    741.534900
4165.57    904.434900
4167.20    978.805100
4168.82    995.367900
4170.45    623.235300
4172.07    764.343900
4173.69    867.761000
4175.32    828.968400
4176.94    942.405000
4178.57    801.382800
4180.19    817.966100
4181.81    680.789400
4183.44    850.349400
4185.06    805.042900
4186.69    870.455300
4188.31    657.715300
4189.94    871.090900
4191.56    896.373400
4193.18    820.823500
4194.81    904.744000
4196.43    762.882700
4198.06    700.291400
4199.68    713.623700
4201.30    805.984800
4202.93    787.147000
4204.55    840.114100
4206.18    691.708400
4207.80    838.004600
4209.42    771.744400
4211.05    855.690700
4212.67    702.458600
4214.30    868.078400
4215.92    920.556900
4217.54    963.059500
4219.17    941.284000
4220.79    898.992100
4222.41    855.677500
4224.04    935.506900
4225.66    915.648400
4227.29    642.864700
4228.91    693.684800
4230.54    793.453900
4232.16    616.142800
4233.78    724.340600
4235.41    683.337200
4237.03    775.507800
4238.66    809.589200
4240.28    893.794500
4241.90    927.296100
4243.53    915.641700
4245.15    874.375500
4246.78    810.139300
4248.40    933.480700
4250.02    890.748300
4251.65    834.507000
4253.27    863.119000
4254.90    941.085300
4256.52    967.084800
4258.14    935.074300
4259.77    726.733800
4261.39    597.497100
4263.02    644.474900
4264.64    923.309400
4266.26    984.487600
4267.89    913.136100
4269.51    750.221600
4271.14    878.144500
4272.76    914.971700
4274.39    769.814900
4276.01    883.266400
4277.63    889.151600
4279.26    767.244300
4280.88    836.464200
4282.51    684.803600
4284.13    760.805200
4285.75    977.809700
4287.38    908.124900
4289.00    848.646500
4290.62    831.084000
4292.25    843.057500
4293.87    894.688400
4295.50    957.572800
4297.12    880.814300
4298.74    832.912500
4300.37    771.300200
4301.99    784.072800
4303.62    882.216200
4305.24    843.078700
4306.86    847.021700
4308.49    901.535000
4310.11    838.356300
4311.74    859.927400
4313.36    933.135900
4314.99    887.529500
4316.61    742.494800
4318.23    902.258900
4319.86    832.700900
4321.48    849.267900
4323.11    964.650500
4324.73    1019.978000
4326.35    1002.627000
4327.98    880.953700
4329.60    835.612600
4331.23    758.505600
4332.85    883.493700
4334.47    928.635900
4336.10    971.629700
4337.72    930.944500
4339.35    781.697400
4340.97    913.728800
4342.59    975.845600
4344.22    872.432500
4345.84    795.259700
4347.47    867.426400
4349.09    990.546000
4350.71    971.737200
4352.34    935.579200
4353.96    989.286800
4355.59    934.358600
4357.21    828.594800
4358.84    781.205300
4360.46    715.268900
4362.08    841.346900
4363.71    941.952700
4365.33    912.376400
4366.95    855.914200
4368.58    1037.798000
4370.20    978.569900
4371.83    903.373700
4373.45    931.934100
4375.07    932.619400
4376.70    997.147900
4378.32    945.328300
4379.95    1013.121000
4381.57    969.073300
4383.19    919.316800
4384.82    837.482700
4386.44    877.351400
4388.07    848.502500
4389.69    824.150300
4391.31    771.629800
4392.94    776.966300
4394.56    891.071500
4396.19    964.934300
4397.81    941.652700
4399.44    919.754800
4401.06    958.717200
4402.68    910.949600
4404.31    853.257900
4405.93    917.291600
4407.56    744.833500
4409.18    792.187300
4410.80    752.951700
4412.43    924.219000
4414.05    832.619800
4415.68    826.235400
4417.30    863.687600
4418.92    952.793900
4420.55    788.689100
4422.17    848.160000
4423.80    731.009800
4425.42    884.667700
4427.04    757.390100
4428.67    945.916700
4430.29    835.337000
4431.92    924.184000
4433.54    812.092500
4435.16    800.899700
4436.79    836.245400
4438.41    695.366900
4440.04    615.719500
4441.66    785.071700
4443.28    674.533300
4444.91    693.894400
4446.53    637.476500
4448.16    584.186700
4449.78    783.049300
4451.40    1001.030000
4453.03    987.279300
4454.65    946.117500
4456.28    898.061800
4457.90    1116.873000
4459.52    922.155400
4461.15    830.612900
4462.77    785.376200
4464.40    939.101800
4466.02    1055.018000
4467.65    830.906900
4469.27    1041.509000
4470.89    986.775500
4472.52    924.085900
4474.14    908.137500
4475.77    894.366300
4477.39    867.475600
4479.01    946.411300
4480.64    846.368000
4482.26    865.183200
4483.89    937.659800
4485.51    956.577400
4487.13    727.074400
4488.76    803.953900
4490.38    908.555200
4492.01    861.659100
4493.63    816.507900
4495.25    912.092200
4496.88    878.340100
4498.50    1045.191000
4500.13    940.870800
4501.75    1076.820000
4503.38    990.791400
4505.00    946.417500
4506.62    872.848300
4508.25    977.424000
4509.87    1009.195000
4511.49    933.542200
4513.12    969.741100
4514.74    1001.136000
4516.37    925.055300
4517.99    896.943300
4519.61    940.929600
4521.24    878.150800
4522.86    698.367700
4524.49    742.858600
4526.11    789.722200
4527.73    960.134900
4529.36    900.211600
4530.98    853.565200
4532.61    950.126200
4534.23    1072.215000
4535.85    973.247400
4537.48    990.602000
4539.10    1082.254000
4540.73    983.227500
4542.35    926.837000
4543.98    863.010100
4545.60    1015.373000
4547.22    985.434400
4548.85    1106.031000
4550.47    1000.144000
4552.10    941.554400
4553.72    1019.704000
4555.34    939.293800
4556.97    993.442900
4558.59    997.542500
4560.22    1011.876000
4561.84    1107.957000
4563.46    1001.435000
4565.09    1062.029000
4566.71    1070.625000
4568.34    984.963300
4569.96    982.628800
4571.58    963.771700
4573.21    970.798600
4574.83    1011.704000
4576.46    1065.827000
4578.08    1120.636000
4579.70    1067.325000
4581.33    1039.908000
4582.95    1132.343000
4584.58    1200.253000
4586.20    1010.071000
4587.82    1078.082000
4589.45    1205.857000
4591.07    1170.947000
4592.70    1088.730000
4594.32    967.891300
4595.94    1063.247000
4597.57    1023.967000
4599.19    974.597000
4600.82    1009.685000
4602.44    1052.885000
4604.06    1048.402000
4605.69    925.714800
4607.31    1043.264000
4608.94    1043.936000
4610.56    981.487500
4612.19    1055.393000
4613.81    1042.413000
4615.43    1142.874000
4617.06    1261.930000
4618.68    1122.426000
4620.31    1094.288000
4621.93    1159.153000
4623.55    1096.184000
4625.18    1103.820000
4626.80    1181.111000
4628.43    1119.680000
4630.05    1147.667000
4631.67    1139.959000
4633.30    1079.343000
4634.92    1114.401000
4636.55    1151.430000
4638.17    1138.290000
4639.79    1074.741000
4641.42    1061.625000
4643.04    1152.244000
4644.67    1201.808000
4646.29    1147.652000
4647.91    1195.090000
4649.54    1226.156000
4651.16    1231.618000
4652.79    1192.802000
4654.41    1221.166000
4656.03    1251.393000
4657.66    1239.906000
4659.28    1166.846000
4660.91    1118.216000
4662.53    1171.290000
4664.15    1253.285000
4665.78    1190.280000
4667.40    1131.558000
4669.03    1054.219000
4670.65    949.037600
4672.27    961.356000
4673.90    1072.010000
4675.52    1061.889000
4677.15    978.113500
4678.77    1086.833000
4680.40    1134.963000
4682.02    1161.149000
4683.64    1034.964000
4685.27    1000.760000
4686.89    1167.193000
4688.52    1053.292000
4690.14    1069.543000
4691.76    1138.578000
4693.39    1194.856000
4695.01    1130.094000
4696.64    1015.150000
4698.26    1031.287000
4699.88    1037.703000
4701.51    1051.387000
4703.13    1080.608000
4704.76    1243.086000
4706.38    1257.729000
4708.00    1085.744000
4709.63    1050.183000
4711.25    991.530900
4712.88    1071.010000
4714.50    1145.743000
4716.12    1115.543000
4717.75    1174.484000
4719.37    1206.214000
4721.00    1145.839000
4722.62    1091.777000
4724.24    1105.153000
4725.87    1073.297000
4727.49    1099.383000
4729.12    1171.999000
4730.74    1168.545000
4732.36    1178.658000
4733.99    1192.918000
4735.61    1286.418000
4737.24    1103.918000
4738.86    1035.126000
4740.48    1164.510000
4742.11    1182.102000
4743.73    1163.126000
4745.36    1211.286000
4746.98    1024.849000
4748.60    1136.035000
4750.23    1107.326000
4751.85    1190.089000
4753.48    1144.425000
4755.10    1271.215000
4756.73    1224.404000
4758.35    1047.179000
4759.97    1133.301000
4761.60    1209.196000
4763.22    1105.373000
4764.85    1200.572000
4766.47    1219.387000
4768.09    1094.092000
4769.72    1244.277000
4771.34    1322.884000
4772.97    1157.781000
4774.59    1160.774000
4776.21    1246.794000
4777.84    1085.452000
4779.46    1190.404000
4781.09    1074.278000
4782.71    1143.126000
4784.33    1092.860000
4785.96    1120.741000
4787.58    1161.294000
4789.21    1243.285000
4790.83    1031.017000
4792.45    1006.820000
4794.08    1119.790000
4795.70    1037.763000
4797.33    1203.890000
4798.95    1185.525000
4800.57    1140.496000
4802.20    1153.996000
4803.82    1059.487000
4805.45    1129.392000
4807.07    1180.668000
4808.69    1215.737000
4810.32    1138.529000
4811.94    1025.994000
4813.57    1113.697000
4815.19    1086.992000
4816.81    1043.837000
4818.44    1133.678000
4820.06    1174.984000
4821.69    1178.519000
4823.31    1193.290000
4824.94    1144.489000
4826.56    1232.918000
4828.18    1201.052000
4829.81    1200.615000
4831.43    1036.511000
4833.06    1128.892000
4834.68    1176.342000
4836.30    1308.962000
4837.93    1052.001000
4839.55    989.460800
4841.18    1097.770000
4842.80    1108.756000
4844.42    1242.421000
4846.05    1162.500000
4847.67    1073.893000
4849.30    1065.173000
4850.92    1064.403000
4852.54    1174.084000
4854.17    1106.308000
4855.79    1037.389000
4857.42    1007.638000
4859.04    1107.625000
4860.66    1063.968000
4862.29    1010.362000
4863.91    1036.192000
4865.54    1072.923000
4867.16    1215.141000
4868.78    1235.482000
4870.41    1176.597000
4872.03    1236.776000
4873.66    1228.953000
4875.28    1062.190000
4876.90    1109.725000
4878.53    1069.040000
4880.15    985.527800
4881.78    1036.352000
4883.40    1198.906000
4885.02    1014.978000
4886.65    1089.798000
4888.27    1079.448000
4889.90    1145.969000
4891.52    1173.594000
4893.15    1206.013000
4894.77    1223.374000
4896.39    1217.022000
4898.02    1175.454000
4899.64    1144.816000
4901.27    1074.388000
4902.89    1223.629000
4904.51    1180.521000
4906.14    1161.488000
4907.76    1064.555000
4909.39    1128.215000
4911.01    1104.495000
4912.63    1199.738000
4914.26    1215.429000
4915.88    1087.074000
4917.51    1132.444000
4919.13    1080.033000
4920.75    1115.185000
4922.38    1126.407000
4924.00    1161.923000
4925.63    1224.040000
4927.25    1242.882000
4928.87    1265.348000
4930.50    1179.582000
4932.12    1252.678000
4933.75    1175.119000
4935.37    1146.818000
4936.99    1167.261000
4938.62    1213.566000
4940.24    1153.596000
4941.87    1202.840000
4943.49    1171.116000
4945.11    1162.893000
4946.74    1200.475000
4948.36    1141.610000
4949.99    1277.296000
4951.61    1070.281000
4953.23    1132.340000
4954.86    1204.912000
4956.48    1158.867000
4958.11    1185.308000
4959.73    1087.605000
4961.35    1212.638000
4962.98    1161.213000
4964.60    1239.196000
4966.23    1262.139000
4967.85    1222.539000
4969.48    1300.869000
4971.10    1205.836000
4972.72    1282.337000
4974.35    1150.685000
4975.97    1078.174000
4977.60    1196.309000
4979.22    1089.762000
4980.84    1165.638000
4982.47    1115.855000
4984.09    1123.634000
4985.72    1155.819000
4987.34    1173.746000
4988.96    1093.686000
4990.59    1062.332000
4992.21    1217.784000
4993.84    1193.551000
4995.46    1222.992000
4997.08    1115.005000
4998.71    1165.477000
5000.33    1235.609000
5001.96    1262.930000
5003.58    1095.212000
5005.20    1029.281000
5006.83    1165.425000
5008.45    989.183200
5010.08    1109.014000
5011.70    1167.207000
5013.32    1268.828000
5014.95    1241.570000
5016.57    1134.335000
5018.20    1160.713000
5019.82    1029.372000
5021.44    1045.831000
5023.07    1125.780000
5024.69    996.315500
5026.32    1062.376000
5027.94    1002.229000
5029.56    991.497300
5031.19    1062.884000
5032.81    1143.161000
5034.44    1075.630000
5036.06    1115.844000
5037.69    1155.850000
5039.31    1058.355000
5040.93    1044.010000
5042.56    1159.346000
5044.18    1020.627000
5045.81    1028.052000
5047.43    1090.717000
5049.05    1136.460000
5050.68    1270.783000
5052.30    1284.888000
5053.93    1146.798000
5055.55    1161.268000
5057.17    1191.800000
5058.80    1201.029000
5060.42    1065.045000
5062.05    1125.005000
5063.67    1109.889000
5065.29    1098.437000
5066.92    1211.397000
5068.54    1272.536000
5070.17    1230.698000
5071.79    1127.673000
5073.41    1186.542000
5075.04    1087.719000
5076.66    1072.420000
5078.29    1203.231000
5079.91    1110.778000
5081.53    1063.665000
5083.16    1319.253000
5084.78    1249.837000
5086.41    1163.551000
5088.03    1219.843000
5089.65    1152.067000
5091.28    1119.805000
5092.90    1227.355000
5094.53    1157.726000
5096.15    1194.580000
5097.77    1177.522000
5099.40    1209.249000
5101.02    1252.006000
5102.65    1278.392000
5104.27    1309.723000
5105.90    1233.952000
5107.52    1205.435000
5109.14    1291.766000
5110.77    1191.346000
5112.39    1147.930000
5114.02    1148.053000
5115.64    1221.177000
5117.26    1266.342000
5118.89    1211.559000
5120.51    1128.022000
5122.14    1151.716000
5123.76    1172.505000
5125.38    1221.395000
5127.01    1265.347000
5128.63    1204.162000
5130.26    1208.619000
5131.88    1148.682000
5133.50    1255.323000
5135.13    1130.944000
5136.75    1077.712000
5138.38    1030.897000
5140.00    978.303700
5141.62    1101.094000
5143.25    1039.131000
5144.87    1174.610000
5146.50    1154.596000
5148.12    1259.504000
5149.74    1171.689000
5151.37    1145.698000
5152.99    1089.683000
5154.62    1129.217000
5156.24    1220.820000
5157.86    1042.671000
5159.49    1109.369000
5161.11    1032.623000
5162.74    1166.837000
5164.36    1281.492000
5165.98    1199.702000
5167.61    1069.014000
5169.23    1085.998000
5170.86    1193.829000
5172.48    1032.990000
5174.10    1123.827000
5175.73    1083.521000
5177.35    1049.047000
5178.98    1118.126000
5180.60    1071.675000
5182.23    1147.290000
5183.85    1135.908000
5185.47    1049.528000
5187.10    1141.036000
5188.72    1175.137000
5190.35    1154.551000
5191.97    1262.945000
5193.59    1149.851000
5195.22    1109.440000
5196.84    1147.810000
5198.47    1153.996000
5200.09    1179.073000
5201.71    1104.973000
5203.34    1136.851000
5204.96    1243.179000
5206.59    1166.263000
5208.21    1151.354000
5209.83    1205.666000
5211.46    1149.037000
5213.08    1133.017000
5214.71    1218.449000
5216.33    1207.214000
5217.95    1268.970000
5219.58    1150.202000
5221.20    1308.078000
5222.83    1159.782000
5224.45    1171.163000
5226.07    1165.700000
5227.70    1192.366000
5229.32    1165.090000
5230.95    1195.496000
5232.57    1124.067000
5234.19    1171.812000
5235.82    1103.861000
5237.44    1172.890000
5239.07    1158.543000
5240.69    1063.624000
5242.31    1136.633000
5243.94    1101.246000
5245.56    1059.381000
5247.19    1080.410000
5248.81    1113.921000
5250.44    1202.994000
5252.06    1196.279000
5253.68    1247.294000
5255.31    1199.170000
5256.93    1052.260000
5258.56    1114.778000
5260.18    1155.102000
5261.80    1197.002000
5263.43    1061.666000
5265.05    1085.270000
5266.68    1064.573000
5268.30    1201.993000
5269.92    1158.141000
5271.55    1051.074000
5273.17    1141.146000
5274.80    1224.104000
5276.42    1152.072000
5278.04    1254.408000
5279.67    1118.219000
5281.29    1142.581000
5282.91    1154.520000
5284.54    1179.724000
5286.16    1217.562000
5287.79    1109.063000
5289.41    1171.531000
5291.04    1129.832000
5292.66    1135.574000
5294.28    1187.337000
5295.91    1222.462000
5297.53    1084.896000
5299.16    1203.639000
5300.78    1073.925000
5302.40    1088.355000
5304.03    1132.373000
5305.65    1072.198000
5307.28    1195.788000
5308.90    1135.868000
5310.52    1101.721000
5312.15    1077.519000
5313.77    1060.720000
5315.40    1147.056000
5317.02    1174.701000
5318.64    1072.886000
5320.27    1101.076000
5321.89    1217.973000
5323.52    1139.914000
5325.14    1133.740000
5326.76    1082.915000
5328.39    1020.244000
5330.01    1054.723000
5331.64    1058.158000
5333.26    854.278900
5334.89    928.608000
5336.51    942.315600
5338.13    902.601000
5339.76    902.987900
5341.38    958.792700
5343.01    988.343200
5344.63    1002.791000
5346.25    1006.971000
5347.88    1001.245000
5349.50    974.693400
5351.12    976.531700
5352.75    1066.216000
5354.37    1083.891000
5356.00    1122.495000
5357.62    1016.522000
5359.24    1103.800000
5360.87    1220.697000
5362.49    1073.254000
5364.12    1118.132000
5365.74    1171.120000
5367.36    1066.971000
5368.99    1061.005000
5370.61    1074.403000
5372.24    1031.500000
5373.86    1009.975000
5375.49    1080.487000
5377.11    1063.599000
5378.73    1083.215000
5380.36    1099.598000
5381.98    1124.375000
5383.61    1187.267000
5385.23    1187.343000
5386.85    1211.227000
5388.48    1125.934000
5390.10    987.004600
5391.73    1052.502000
5393.35    1116.332000
5394.97    1088.000000
5396.60    1166.791000
5398.22    1169.516000
5399.85    1030.413000
5401.47    1133.085000
5403.09    1169.361000
5404.72    1196.287000
5406.34    1246.890000
5407.97    1164.314000
5409.59    1101.705000
5411.21    1073.498000
5412.84    1131.489000
5414.46    1117.326000
5416.09    1131.818000
5417.71    1174.408000
5419.34    1165.598000
5420.96    1205.594000
5422.58    1140.934000
5424.21    1116.508000
5425.83    1244.920000
5427.45    1237.979000
5429.08    1078.490000
5430.70    932.167200
5432.33    892.935800
5433.95    995.315100
5435.57    962.047700
5437.20    1007.214000
5438.82    1123.820000
5440.45    1007.752000
5442.07    1065.415000
5443.69    1195.396000
5445.32    1139.969000
5446.94    1136.540000
5448.57    1174.688000
5450.19    1186.890000
5451.81    1197.529000
5453.44    1180.708000
5455.06    1227.328000
5456.69    1277.656000
5458.31    1341.884000
5459.94    1194.339000
5461.56    1137.686000
5463.18    1148.086000
5464.81    1068.007000
5466.43    1079.350000
5468.06    1278.706000
5469.68    1321.479000
5471.30    1215.870000
5472.93    1161.332000
5474.55    1205.103000
5476.18    1263.294000
5477.80    1230.043000
5479.42    1198.911000
5481.05    1263.976000
5482.67    1211.654000
5484.30    1277.037000
5485.92    1188.963000
5487.54    1192.502000
5489.17    1267.118000
5490.79    1193.709000
5492.42    1092.109000
5494.04    1097.697000
5495.66    1098.432000
5497.29    1161.130000
5498.91    1153.810000
5500.54    1081.550000
5502.16    1224.343000
5503.78    1191.108000
5505.41    1096.122000
5507.03    1193.904000
5508.66    1229.514000
5510.28    1112.012000
5511.90    1258.135000
5513.53    1157.475000
5515.15    1279.418000
5516.78    1195.231000
5518.40    1275.061000
5520.02    1157.748000
5521.65    1250.339000
5523.27    1318.839000
5524.90    1230.624000
5526.52    1328.375000
5528.15    1305.661000
5529.77    1258.459000
5531.39    1318.114000
5533.02    1262.949000
5534.64    1245.046000
5536.27    1190.760000
5537.89    1221.254000
5539.51    1127.135000
5541.14    1101.523000
5542.76    1169.081000
5544.39    1234.810000
5546.01    1192.991000
5547.63    1056.228000
5549.26    1163.889000
5550.88    1211.911000
5552.51    1302.850000
5554.13    1274.196000
5555.75    1291.514000
5557.38    1291.852000
5559.00    1213.124000
5560.63    1175.752000
5562.25    1076.901000
5563.88    1148.143000
5565.50    1230.887000
5567.12    1179.588000
5568.75    1241.720000
5570.37    1169.429000
5571.99    1338.525000
5573.62    1263.043000
5575.24    477.199800
5576.87    556.975800
5578.49    1419.312000
5580.11    1883.615000
5581.74    1710.636000
5583.36    1503.894000
5584.99    1208.844000
5586.61    1150.466000
5588.23    1148.926000
5589.86    1215.485000
5591.48    1231.167000
5593.11    1309.142000
5594.73    1281.521000
5596.35    1269.369000
5597.98    1247.837000
5599.60    1213.786000
5601.23    1311.020000
5602.85    1247.098000
5604.48    1180.674000
5606.10    1140.550000
5607.72    1083.470000
5609.35    1129.559000
5610.97    1175.479000
5612.60    1150.023000
5614.22    1203.668000
5615.84    1254.854000
5617.47    1285.841000
5619.09    1170.072000
5620.72    1217.824000
5622.34    1243.522000
5623.96    1251.748000
5625.59    1129.751000
5627.21    1147.616000
5628.84    1199.652000
5630.46    1284.768000
5632.08    1166.484000
5633.71    1125.695000
5635.33    1107.411000
5636.96    1120.696000
5638.58    1232.291000
5640.20    1217.654000
5641.83    1196.465000
5643.45    1181.605000
5645.08    1187.202000
5646.70    1184.226000
5648.32    1177.631000
5649.95    1168.915000
5651.57    1177.115000
5653.20    1214.786000
5654.82    1247.932000
5656.44    1205.152000
5658.07    1210.983000
5659.69    1189.784000
5661.32    1161.784000
5662.94    1248.256000
5664.56    1221.497000
5666.19    1223.250000
5667.81    1244.686000
5669.44    1325.410000
5671.06    1244.595000
5672.69    1211.549000
5674.31    1232.022000
5675.93    1152.949000
5677.56    1149.124000
5679.18    1155.501000
5680.81    1178.302000
5682.43    1175.650000
5684.05    1186.391000
5685.68    1205.309000
5687.30    1251.006000
5688.93    1171.203000
5690.55    1156.799000
5692.17    1180.225000
5693.80    1330.052000
5695.42    1279.329000
5697.05    1217.623000
5698.67    1159.899000
5700.29    1242.809000
5701.92    1346.211000
5703.54    1361.818000
5705.17    1318.095000
5706.79    1190.589000
5708.41    1218.530000
5710.04    1236.467000
5711.66    1245.514000
5713.29    1204.667000
5714.91    1172.828000
5716.53    1148.746000
5718.16    1138.714000
5719.78    1227.918000
5721.41    1299.900000
5723.03    1333.151000
5724.65    1271.873000
5726.28    1182.090000
5727.90    1162.121000
5729.53    1157.074000
5731.15    1161.404000
5732.77    1177.503000
5734.40    1237.425000
5736.02    1290.318000
5737.65    1129.589000
5739.27    1163.567000
5740.90    1221.592000
5742.52    1291.415000
5744.14    1263.108000
5745.77    1206.367000
5747.39    1158.170000
5749.02    1113.534000
5750.64    1164.892000
5752.26    1140.408000
5753.89    1116.350000
5755.51    1095.640000
5757.14    1231.766000
5758.76    1224.109000
5760.38    1185.359000
5762.01    1098.147000
5763.63    1145.601000
5765.26    1204.904000
5766.88    1240.660000
5768.50    1178.219000
5770.13    1131.576000
5771.75    1139.150000
5773.38    1160.760000
5775.00    1171.487000
5776.62    1183.330000
5778.25    1145.531000
5779.87    1084.840000
5781.50    1139.359000
5783.12    1206.127000
5784.74    1234.538000
5786.37    1234.934000
5787.99    1155.662000
5789.62    1106.296000
5791.24    1120.684000
5792.86    1225.696000
5794.49    1229.210000
5796.11    1139.845000
5797.74    1100.580000
5799.36    1182.115000
5800.98    1145.208000
5802.61    1096.260000
5804.23    1073.915000
5805.86    1153.282000
5807.48    1188.906000
5809.10    1246.862000
5810.73    1297.735000
5812.35    1269.167000
5813.98    1210.422000
5815.60    1169.883000
5817.23    1140.759000
5818.85    1208.246000
5820.47    1197.854000
5822.10    1213.822000
5823.72    1246.129000
5825.35    1182.548000
5826.97    1213.225000
5828.59    1213.607000
5830.22    1177.471000
5831.84    1179.362000
5833.47    1216.604000
5835.09    1223.980000
5836.71    1175.294000
5838.34    1162.337000
5839.96    1203.713000
5841.59    1240.658000
5843.21    1250.294000
5844.83    1188.699000
5846.46    1180.388000
5848.08    1174.718000
5849.71    1126.576000
5851.33    1157.868000
5852.95    1163.964000
5854.58    1161.492000
5856.20    1186.570000
5857.83    1221.579000
5859.45    1207.628000
5861.07    1161.715000
5862.70    1200.583000
5864.32    1228.524000
5865.95    1226.862000
5867.57    1194.225000
5869.19    1138.163000
5870.82    1112.605000
5872.44    1131.128000
5874.07    1226.584000
5875.69    1239.786000
5877.31    1235.523000
5878.94    1231.334000
5880.56    1236.266000
5882.19    1066.966000
5883.81    1123.988000
5885.44    1206.694000
5887.06    1203.601000
5888.68    1230.514000
5890.31    1230.524000
5891.93    1196.564000
5893.56    964.832800
5895.18    1116.943000
5896.80    1172.329000
5898.43    1175.685000
5900.05    1185.218000
5901.68    1174.059000
5903.30    1165.573000
5904.92    1159.010000
5906.55    1101.484000
5908.17    1105.087000
5909.80    1137.712000
5911.42    1219.027000
5913.04    1228.746000
5914.67    1205.440000
5916.29    1181.781000
5917.92    1166.718000
5919.54    1254.652000
5921.16    1248.875000
5922.79    1227.106000
5924.41    1211.219000
5926.04    1150.820000
5927.66    1220.252000
5929.28    1303.069000
5930.91    1195.115000
5932.53    1212.706000
5934.16    1168.742000
5935.78    1097.634000
5937.40    1160.917000
5939.03    1142.366000
5940.65    1121.184000
5942.28    1095.877000
5943.90    1263.932000
5945.52    1259.720000
5947.15    1260.957000
5948.77    1273.425000
5950.40    1177.958000
5952.02    1214.279000
5953.65    1198.642000
5955.27    1055.707000
5956.89    1133.420000
5958.52    1150.759000
5960.14    1136.311000
5961.77    1047.027000
5963.39    1055.539000
5965.01    1080.051000
5966.64    1108.516000
5968.26    1140.468000
5969.89    1122.439000
5971.51    1133.370000
5973.13    1162.473000
5974.76    1276.687000
5976.38    1165.030000
5978.01    1151.895000
5979.63    1204.021000
5981.25    1211.090000
5982.88    1148.047000
5984.50    1146.804000
5986.13    1218.039000
5987.75    1130.125000
5989.37    1202.165000
5991.00    1219.304000
5992.62    1124.116000
5994.25    1143.436000
5995.87    1161.917000
5997.49    1157.382000
5999.12    1086.356000
6000.74    1210.885000
6002.37    1272.740000
6003.99    1304.018000
6005.61    1254.636000
6007.24    1242.716000
6008.86    1205.424000
6010.49    1157.325000
6012.11    1139.721000
6013.73    1223.145000
6015.36    1261.246000
6016.98    1274.470000
6018.61    1399.155000
6020.23    1224.719000
6021.85    1174.723000
6023.48    1246.830000
6025.10    1120.925000
6026.73    1095.167000
6028.35    1109.837000
6029.98    1193.005000
6031.60    1258.513000
6033.22    1254.789000
6034.85    1236.842000
6036.47    1202.063000
6038.10    1151.732000
6039.72    1187.390000
6041.34    1241.644000
6042.97    1310.273000
6044.59    1311.919000
6046.22    1314.605000
6047.84    1314.569000
6049.46    1301.499000
6051.09    1204.393000
6052.71    1197.663000
6054.34    1239.696000
6055.96    1293.957000
6057.58    1318.572000
6059.21    1291.612000
6060.83    1216.477000
6062.46    1190.392000
6064.08    1207.583000
6065.70    1223.808000
6067.33    1242.751000
6068.95    1137.627000
6070.58    1097.684000
6072.20    1081.103000
6073.82    1108.823000
6075.45    974.426100
6077.07    953.655900
6078.70    951.069200
6080.32    949.703000
6081.94    1017.480000
6083.57    1056.940000
6085.19    1087.181000
6086.82    1113.394000
6088.44    1100.530000
6090.06    1142.658000
6091.69    1215.384000
6093.31    1337.541000
6094.94    1222.721000
6096.56    1163.684000
6098.19    1145.261000
6099.81    1211.494000
6101.43    1228.872000
6103.06    1219.254000
6104.68    1176.487000
6106.31    1174.065000
6107.93    1182.629000
6109.55    1185.651000
6111.18    1179.588000
6112.80    1258.582000
6114.43    1220.537000
6116.05    1180.534000
6117.67    1194.042000
6119.30    1259.251000
6120.92    1217.142000
6122.55    1162.348000
6124.17    1205.792000
6125.79    1262.053000
6127.42    1254.366000
6129.04    1218.365000
6130.67    1199.012000
6132.29    1194.915000
6133.91    1216.364000
6135.54    1254.823000
6137.16    1305.511000
6138.79    1268.827000
6140.41    1252.169000
6142.03    1256.213000
6143.66    1271.629000
6145.28    1272.743000
6146.91    1274.763000
6148.53    1284.434000
6150.15    1316.730000
6151.78    1270.047000
6153.40    1229.733000
6155.03    1238.390000
6156.65    1304.725000
6158.27    1301.330000
6159.90    1276.984000
6161.52    1232.748000
6163.15    1290.101000
6164.77    1270.922000
6166.40    1225.771000
6168.02    1227.112000
6169.64    1184.489000
6171.27    1171.728000
6172.89    1175.024000
6174.52    1202.972000
6176.14    1223.259000
6177.76    1260.235000
6179.39    1317.670000
6181.01    1274.539000
6182.64    1252.916000
6184.26    1226.392000
6185.88    1191.275000
6187.51    1214.808000
6189.13    1212.062000
6190.76    1209.391000
6192.38    1218.937000
6194.00    1215.833000
6195.63    1197.871000
6197.25    1185.838000
6198.88    1219.301000
6200.50    1188.585000
6202.12    1196.013000
6203.75    1218.709000
6205.37    1272.656000
6207.00    1206.698000
6208.62    1186.238000
6210.24    1186.301000
6211.87    1175.493000
6213.49    1141.717000
6215.12    1154.768000
6216.74    1210.523000
6218.36    1181.024000
6219.99    1180.863000
6221.61    1195.925000
6223.24    1237.503000
6224.86    1170.208000
6226.48    1239.933000
6228.11    1295.140000
6229.73    1301.496000
6231.36    1218.383000
6232.98    1213.139000
6234.60    1214.833000
6236.23    1194.982000
6237.85    1195.315000
6239.48    1235.350000
6241.10    1288.570000
6242.73    1356.158000
6244.35    1247.844000
6245.97    1191.436000
6247.60    1161.703000
6249.22    1241.608000
6250.85    1215.335000
6252.47    1208.491000
6254.09    1214.623000
6255.72    1225.063000
6257.34    1215.349000
6258.97    1201.614000
6260.59    1182.232000
6262.21    1095.678000
6263.84    1201.154000
6265.46    1294.384000
6267.09    1352.896000
6268.71    1218.241000
6270.33    1195.138000
6271.96    1183.068000
6273.58    1158.430000
6275.21    1175.759000
6276.83    1164.665000
6278.45    1140.602000
6280.08    1093.958000
6281.70    1127.193000
6283.33    1131.663000
6284.95    1129.554000
6286.57    1213.248000
6288.20    1084.846000
6289.82    1094.785000
6291.45    1195.156000
6293.07    1143.644000
6294.69    1077.609000
6296.32    1065.021000
6297.94    1110.937000
6299.57    1178.809000
6301.19    1087.726000
6302.81    1081.362000
6304.44    1243.318000
6306.06    1156.830000
6307.69    1125.958000
6309.31    1135.672000
6310.94    1251.538000
6312.56    1185.485000
6314.18    1200.600000
6315.81    1211.162000
6317.43    1113.802000
6319.06    1104.279000
6320.68    1111.780000
6322.30    1129.441000
6323.93    1199.763000
6325.55    1183.784000
6327.18    1191.522000
6328.80    1206.489000
6330.42    1032.764000
6332.05    1089.735000
6333.67    1136.963000
6335.30    1179.272000
6336.92    1283.613000
6338.54    1303.905000
6340.17    1287.280000
6341.79    1216.212000
6343.41    1206.086000
6345.04    1243.479000
6346.66    1249.410000
6348.29    1167.467000
6349.91    1193.651000
6351.54    1177.753000
6353.16    1151.727000
6354.78    1121.590000
6356.41    1100.993000
6358.03    1105.821000
6359.66    1131.379000
6361.28    1267.075000
6362.90    1225.879000
6364.53    1170.429000
6366.15    1106.959000
6367.78    1151.044000
6369.40    1131.121000
6371.02    1173.366000
6372.65    1272.563000
6374.27    1306.526000
6375.90    1248.989000
6377.52    1192.566000
6379.15    1136.700000
6380.77    1157.034000
6382.39    1146.353000
6384.02    1114.003000
6385.64    1037.051000
6387.27    1074.285000
6388.89    1140.933000
6390.51    1189.219000
6392.14    1159.000000
6393.76    1150.769000
6395.39    1139.160000
6397.01    1132.100000
6398.63    1173.699000
6400.26    1174.780000
6401.88    1161.265000
6403.51    1140.940000
6405.13    1160.444000
6406.75    1214.712000
6408.38    1201.582000
6410.00    1134.156000
6411.62    1111.141000
6413.25    1137.294000
6414.87    1154.315000
6416.50    1161.844000
6418.12    1162.315000
6419.74    1161.099000
6421.37    1154.919000
6422.99    1141.589000
6424.62    1058.757000
6426.24    1103.902000
6427.86    1152.371000
6429.49    1160.805000
6431.11    1111.117000
6432.74    1099.285000
6434.36    1073.607000
6435.99    920.842700
6437.61    985.876300
6439.23    989.285500
6440.86    972.746000
6442.48    1046.035000
6444.11    1091.906000
6445.73    1104.627000
6447.35    1094.975000
6448.98    1148.005000
6450.60    1111.630000
6452.23    1088.611000
6453.85    1077.684000
6455.48    1025.812000
6457.10    1050.907000
6458.72    1079.101000
6460.35    1114.938000
6461.97    1128.282000
6463.60    1150.099000
6465.22    1164.837000
6466.84    1161.708000
6468.47    1133.829000
6470.09    1113.364000
6471.72    1114.358000
6473.34    1221.560000
6474.96    1138.478000
6476.59    1113.448000
6478.21    1111.307000
6479.84    1147.713000
6481.46    1128.141000
6483.08    1126.079000
6484.71    1131.468000
6486.33    1132.706000
6487.95    1117.952000
6489.58    1116.632000
6491.20    1128.333000
6492.83    1128.368000
6494.45    1134.607000
6496.07    1110.611000
6497.70    1038.511000
6499.32    1066.066000
6500.95    1146.724000
6502.57    1200.694000
6504.19    1183.078000
6505.82    1122.159000
6507.44    1104.050000
6509.07    1088.851000
6510.69    1058.433000
6512.32    1134.721000
6513.94    1147.611000
6515.56    1137.715000
6517.19    1117.221000
6518.81    1126.109000
6520.44    1143.041000
6522.06    1159.365000
6523.68    1090.966000
6525.31    1065.767000
6526.93    1071.539000
6528.56    1105.553000
6530.18    1083.578000
6531.81    1156.080000
6533.43    1184.351000
6535.05    1154.903000
6536.68    1087.954000
6538.30    1104.135000
6539.93    1109.456000
6541.55    1080.181000
6543.17    1042.650000
6544.80    1089.855000
6546.42    1143.438000
6548.05    1178.192000
6549.67    1160.511000
6551.29    1097.083000
6552.92    1032.330000
6554.54    1066.789000
6556.16    1172.623000
6557.79    1140.693000
6559.41    1031.422000
6561.04    776.839700
6562.66    774.800000
6564.28    863.119400
6565.91    1023.236000
6567.53    1105.347000
6569.16    1058.662000
6570.78    1093.542000
6572.40    1232.996000
6574.03    1155.159000
6575.65    1132.349000
6577.28    1125.422000
6578.90    1147.523000
6580.52    1156.969000
6582.15    1116.483000
6583.77    1081.604000
6585.40    1088.884000
6587.02    1189.828000
6588.65    1223.986000
6590.27    1230.738000
6591.89    1180.397000
6593.52    1078.666000
6595.14    1062.735000
6596.77    1080.337000
6598.39    1094.630000
6600.01    1037.960000
6601.64    1067.656000
6603.26    1155.026000
6604.89    1266.701000
6606.51    1249.232000
6608.13    1237.301000
6609.76    1229.877000
6611.38    1142.619000
6613.01    1137.931000
6614.63    1098.529000
6616.26    990.570400
6617.88    1067.087000
6619.50    1095.352000
6621.13    1120.806000
6622.75    1161.681000
6624.38    1231.872000
6626.00    1148.798000
6627.62    1047.433000
6629.25    1023.280000
6630.87    1113.326000
6632.49    1121.091000
6634.12    1101.833000
6635.74    1118.493000
6637.37    1179.784000
6638.99    1165.138000
6640.61    1106.003000
6642.24    1142.066000
6643.86    1114.686000
6645.49    1118.908000
6647.11    1153.910000
6648.73    1255.709000
6650.36    1200.152000
6651.98    1152.386000
6653.61    1120.586000
6655.23    1138.235000
6656.85    1104.744000
6658.48    1076.830000
6660.10    1075.490000
6661.73    1110.222000
6663.35    1116.209000
6664.98    1106.331000
6666.60    1052.774000
6668.22    999.389800
6669.85    1037.087000
6671.47    1097.241000
6673.10    1107.209000
6674.72    1053.661000
6676.34    1065.005000
6677.97    1104.347000
6679.59    1051.504000
6681.22    1048.664000
6682.84    1114.034000
6684.46    1242.561000
6686.09    1159.843000
6687.71    1141.512000
6689.34    1129.032000
6690.96    1126.421000
6692.59    1116.573000
6694.21    1072.877000
6695.83    1045.693000
6697.46    1060.909000
6699.08    1035.162000
6700.70    1042.056000
6702.33    1053.935000
6703.95    1070.565000
6705.58    1098.237000
6707.20    1118.022000
6708.82    1129.201000
6710.45    1107.148000
6712.07    1208.210000
6713.70    1164.503000
6715.32    1057.372000
6716.94    1052.828000
6718.57    1080.373000
6720.19    1081.850000
6721.82    1062.145000
6723.44    1039.565000
6725.06    1056.838000
6726.69    1070.044000
6728.31    1078.971000
6729.94    1107.899000
6731.56    1126.558000
6733.19    1158.490000
6734.81    1223.330000
6736.43    1166.232000
6738.06    1144.346000
6739.68    1122.658000
6741.31    1088.799000
6742.93    1201.352000
6744.55    1197.906000
6746.18    1175.181000
6747.80    1209.448000
6749.43    1119.729000
6751.05    1134.338000
6752.67    1192.069000
6754.30    1273.932000
6755.92    1275.595000
6757.55    1283.905000
6759.17    1292.108000
6760.79    1163.377000
6762.42    1199.057000
6764.04    1311.350000
6765.67    1517.207000
6767.29    1930.604000
6768.91    2206.473000
6770.54    2348.308000
6772.16    2287.795000
6773.79    2016.264000
6775.41    1729.643000
6777.03    1433.357000
6778.66    1084.425000
6780.28    1186.103000
6781.91    1181.221000
6783.53    1157.117000
6785.15    1153.877000
6786.78    1292.574000
6788.40    1369.223000
6790.03    1437.713000
6791.65    1621.702000
6793.27    1485.436000
6794.90    1423.848000
6796.52    1393.349000
6798.15    1213.887000
6799.77    1168.251000
6801.40    1144.623000
6803.02    1138.533000
6804.64    1038.268000
6806.27    1041.630000
6807.89    1065.241000
6809.52    1122.441000
6811.14    1196.057000
6812.76    1094.351000
6814.39    1035.305000
6816.01    1118.779000
6817.64    1048.514000
6819.26    1024.110000
6820.88    1023.281000
6822.51    1093.404000
6824.13    1071.969000
6825.76    1099.474000
6827.38    1129.055000
6829.00    1061.646000
6830.63    1139.914000
6832.25    1163.569000
6833.88    1160.541000
6835.50    1187.117000
6837.12    1080.471000
6838.75    1069.927000
6840.37    1138.018000
6842.00    1123.643000
6843.62    1073.473000
6845.24    1064.441000
6846.87    1113.080000
6848.49    1162.131000
6850.12    1132.808000
6851.74    1106.614000
6853.36    1099.867000
6854.99    1038.161000
6856.61    1107.686000
6858.24    1152.198000
6859.86    1040.329000
6861.48    1028.247000
6863.11    980.854100
6864.73    942.508200
6866.36    1036.734000
6867.98    1096.073000
6869.60    1100.094000
6871.23    1073.493000
6872.85    995.256800
6874.48    1032.261000
6876.10    1053.319000
6877.73    1061.863000
6879.35    997.697100
6880.97    1035.458000
6882.60    1049.342000
6884.22    1035.275000
6885.85    993.635600
6887.47    996.727800
6889.09    1008.449000
6890.72    1038.088000
6892.34    954.628200
6893.97    1023.710000
6895.59    1102.740000
6897.21    1161.326000
6898.84    1033.288000
6900.46    1048.034000
6902.09    1084.860000
6903.71    1062.395000
6905.33    1005.005000
6906.96    991.835600
6908.58    993.980500
6910.21    991.941300
6911.83    946.744400
6913.45    951.079900
6915.08    982.252700
6916.70    878.997900
6918.33    913.842400
6919.95    986.743000
6921.57    1107.147000
6923.20    1009.075000
6924.82    1012.379000
6926.45    1042.110000
6928.07    1117.657000
6929.69    1196.102000
6931.32    1117.199000
6932.94    1041.853000
6934.57    1019.558000
6936.19    1013.271000
6937.81    1013.731000
6939.44    1006.130000
6941.06    961.070100
6942.69    1050.412000
6944.31    1103.994000
6945.94    1132.541000
6947.56    1043.954000
6949.18    1007.794000
6950.81    1000.304000
6952.43    1001.811000
6954.06    869.113200
6955.68    916.930700
6957.30    959.592400
6958.93    1002.646000
6960.55    994.214800
6962.18    978.755700
6963.80    960.547000
6965.42    939.064700
6967.05    986.270100
6968.67    1004.554000
6970.30    1033.906000
6971.92    1103.468000
6973.54    1028.478000
6975.17    1012.488000
6976.79    998.490600
6978.42    953.817000
6980.04    943.836700
6981.66    936.989900
6983.29    940.291200
6984.91    1025.333000
6986.54    1046.508000
6988.16    1058.709000
6989.78    1059.656000
6991.41    953.882700
6993.03    991.621200
6994.66    1012.201000
6996.28    1021.102000
6997.90    967.491700
6999.53    941.512700
7001.15    930.356500
7002.78    940.585000
7004.40    883.932100
7006.02    914.591900
7007.65    947.737200
7009.27    980.931100
7010.90    937.523600
7012.52    966.361300
7014.15    990.147100
7015.77    962.470900
7017.39    951.796600
7019.02    1012.221000
7020.64    1063.650000
7022.27    939.782700
7023.89    909.617600
7025.51    935.499600
7027.14    985.109000
7028.76    1008.167000
7030.39    1027.032000
7032.01    1019.486000
7033.63    990.820400
7035.26    989.242800
7036.88    967.503400
7038.51    971.312500
7040.13    1005.338000
7041.75    894.001600
7043.38    931.977200
7045.00    962.911700
7046.63    972.614000
7048.25    1022.545000
7049.87    1012.586000
7051.50    968.640300
7053.12    842.979600
7054.75    866.983800
7056.37    842.481000
7057.99    830.348800
7059.62    952.529100
7061.24    1005.522000
7062.87    1015.480000
7064.49    1005.013000
7066.11    966.163000
7067.74    988.557400
7069.36    988.692700
7070.99    971.357800
7072.61    895.692400
7074.23    908.332300
7075.86    918.892600
7077.48    928.252900
7079.11    907.571800
7080.73    934.953200
7082.35    968.370800
7083.98    1015.926000
7085.60    919.692700
7087.23    956.326900
7088.85    987.226600
7090.48    970.687700
7092.10    1027.853000
7093.72    1034.849000
7095.35    1017.391000
7096.97    934.419000
7098.60    879.760100
7100.22    872.658600
7101.84    882.789000
7103.47    912.015200
7105.09    904.774000
7106.72    975.912500
7108.34    1085.892000
7109.96    994.148600
7111.59    969.244100
7113.21    951.791600
7114.84    939.711300
7116.46    1063.487000
7118.08    964.173100
7119.71    934.340700
7121.33    1014.768000
7122.96    955.383200
7124.58    968.463400
7126.20    968.570700
7127.83    925.572800
7129.45    928.666300
7131.08    949.535300
7132.70    964.117200
7134.32    945.919700
7135.95    1021.066000
7137.57    955.580100
7139.20    869.003900
7140.82    954.627200
7142.44    974.648300
7144.07    970.435500
7145.69    952.916400
7147.32    943.027400
7148.94    947.804300
7150.56    929.512200
7152.19    891.840600
7153.81    870.300200
7155.44    940.293300
7157.06    964.198600
7158.69    931.133700
7160.31    852.503700
7161.93    877.525500
7163.56    886.014500
7165.18    846.968300
7166.81    941.544700
7168.43    947.984400
7170.05    934.984400
7171.68    902.544900
7173.30    870.264900
7174.93    939.107600
7176.55    1009.491000
7178.17    924.210500
7179.80    920.397200
7181.42    898.336000
7183.05    869.994500
7184.67    899.364700
7186.29    904.052400
7187.92    924.782200
7189.54    955.782900
7191.17    916.182000
7192.79    892.141000
7194.41    884.022900
7196.04    893.242000
7197.66    896.481100
7199.29    883.328400
7200.91    877.094000
7202.53    887.242600
7204.16    832.189600
7205.78    833.114100
7207.41    856.253300
7209.03    929.846400
7210.65    878.394200
7212.28    846.227300
7213.90    837.538900
7215.53    936.329200
7217.15    922.325000
7218.77    916.149400
7220.40    909.031300
7222.02    875.977300
7223.65    853.755000
7225.27    863.904100
7226.90    890.211500
7228.52    791.957200
7230.14    858.824300
7231.77    859.363800
7233.39    791.155700
7235.02    691.367100
7236.64    789.738200
7238.26    851.660000
7239.89    851.533500
7241.51    791.095000
7243.14    773.639300
7244.76    773.761700
7246.38    812.095800
7248.01    833.381100
7249.63    884.437700
7251.26    913.983500
7252.88    824.664600
7254.50    872.900100
7256.13    853.151200
7257.75    811.246600
7259.38    792.479900
7261.00    755.194300
7262.62    766.447500
7264.25    802.174900
7265.87    796.386300
7267.50    784.825700
7269.12    771.515600
7270.74    755.639400
7272.37    754.168500
7273.99    732.957500
7275.62    750.680500
7277.24    829.635100
7278.86    790.629400
7280.49    766.816300
7282.11    756.116500
7283.74    774.845300
7285.36    777.382900
7286.98    762.841300
7288.61    745.510600
7290.23    731.203900
7291.86    733.389200
7293.48    753.524700
7295.10    769.765700
7296.73    723.047700
7298.35    706.465300
7299.98    741.642800
7301.60    799.461500
7303.23    803.160600
7304.85    759.012400
7306.47    736.846800
7308.10    730.586000
7309.72    751.988300
7311.35    748.816800
7312.97    741.114600
7314.59    728.736300
7316.22    792.445100
7317.84    787.841700
7319.47    774.919600
7321.09    755.456600
7322.71    726.088900
7324.34    745.607300
7325.96    755.809200
7327.59    713.012000
7329.21    725.462200
7330.83    744.088800
7332.46    752.048500
7334.08    689.155600
7335.71    761.581000
7337.33    764.183600
7338.95    731.650500
7340.58    646.823500
7342.20    654.068200
7343.83    667.245100
7345.45    684.337300
7347.07    751.617700
7348.70    797.222300
7350.32    792.664400
7351.95    729.739600
7353.57    754.161100
7355.19    778.116600
7356.82    782.731100
7358.44    754.299600
7360.07    750.250400
7361.69    741.486300
7363.31    735.724400
7364.94    742.942300
7366.56    706.490500
7368.19    709.530400
7369.81    721.965400
7371.44    742.861600
7373.06    725.208700
7374.68    723.145100
7376.31    728.961700
7377.93    765.008500
7379.56    711.435700
7381.18    687.922000
7382.80    681.299100
7384.43    722.074300
7386.05    689.458200
7387.68    674.715800
7389.30    677.093600
7390.92    757.451800
7392.55    762.130900
7394.17    733.301400
7395.80    651.639000
7397.42    673.695000
7399.04    692.428200
7400.67    700.001600
7402.29    681.976100
7403.92    738.329600
7405.54    741.478500
7407.16    730.520900
7408.79    706.082900
7410.41    684.878100
7412.04    695.073900
7413.66    718.300200
7415.28    769.819300
7416.91    767.794200
7418.53    734.157200
7420.16    685.096600
7421.78    752.289100
7423.40    703.721600
7425.03    667.789700
7426.65    639.914500
7428.28    666.178100
7429.90    725.982700
7431.52    774.990400
7433.15    815.723100
7434.77    697.906100
7436.40    721.492400
7438.02    731.120200
7439.65    684.926600
7441.27    715.418300
7442.89    727.804900
7444.52    732.879200
7446.14    724.800400
7447.77    712.850500
7449.39    726.856300
7451.01    740.567400
7452.64    702.998200
7454.26    672.128200
7455.89    669.855100
7457.51    683.385500
7459.13    739.936600
7460.76    750.820600
7462.38    745.556300
7464.01    726.792300
7465.63    641.941000
7467.25    685.994600
7468.88    700.126600
7470.50    677.463900
7472.12    645.105800
7473.75    652.147500
7475.37    663.116500
7477.00    680.545300
7478.62    712.645300
7480.24    770.789600
7481.87    793.138900
7483.49    686.498000
7485.12    709.775500
7486.74    744.393100
7488.37    778.982800
7489.99    798.344100
7491.61    762.646400
7493.24    717.731700
7494.86    672.750200
7496.49    715.712300
7498.11    715.925400
7499.73    699.303000
7501.36    670.864900
7502.98    760.576300
7504.61    768.828100
7506.23    750.227100
7507.85    699.120000
7509.48    676.688100
7511.10    646.226300
7512.73    647.185200
7514.35    708.290500
7515.98    694.745800
7517.60    775.281300
7519.22    814.322000
7520.85    703.514100
7522.47    550.323500
7524.10    575.711900
7525.72    636.546500
7527.34    678.121700
7528.97    663.631900
7530.59    712.121200
7532.22    780.205000
7533.84    797.681800
7535.46    748.944300
7537.09    701.063300
7538.71    652.538600
7540.34    718.308000
7541.96    723.273100
7543.58    702.490500
7545.21    654.202900
7546.83    687.138800
7548.45    679.908200
7550.08    680.695400
7551.70    698.662200
7553.33    756.857800
7554.95    736.183100
7556.57    715.546800
7558.20    715.462200
7559.82    697.974800
7561.45    711.087100
7563.07    736.299700
7564.70    793.430500
7566.32    807.019000
7567.94    802.059700
7569.57    786.716900
7571.19    740.849100
7572.82    708.397100
7574.44    683.119000
7576.06    662.013900
7577.69    706.646200
7579.31    668.506500
7580.94    657.852900
