#Wavelength     Flux
#[Angstrom]   [Counts]
3941.59    527.497700
3943.22    923.524900
3944.84    803.663800
3946.46    616.200600
3948.09    817.955400
3949.71    564.375400
3951.34    574.684300
3952.96    560.313200
3954.58    711.870500
3956.21    835.984500
3957.83    997.217000
3959.46    848.675700
3961.08    1091.077000
3962.70    757.311200
3964.33    1188.154000
3965.95    705.544800
3967.58    914.183200
3969.20    874.279700
3970.82    980.471000
3972.45    755.689600
3974.07    991.289700
3975.70    759.902900
3977.32    891.645800
3978.94    937.937700
3980.57    742.050700
3982.19    841.564300
3983.82    920.687300
3985.44    1010.696000
3987.06    1056.998000
3988.69    859.752400
3990.31    789.514200
3991.94    842.159300
3993.56    922.052700
3995.18    669.785900
3996.81    506.853200
3998.43    966.949400
4000.06    724.691200
4001.68    632.857700
4003.30    807.910600
4004.93    993.115800
4006.55    770.081600
4008.18    1015.505000
4009.80    947.256300
4011.43    751.639400
4013.05    753.554300
4014.67    781.108400
4016.30    825.359500
4017.92    779.416000
4019.55    801.953200
4021.17    970.822400
4022.79    671.189400
4024.42    957.100200
4026.04    916.929500
4027.66    908.756700
4029.29    1011.641000
4030.91    916.620100
4032.54    1143.952000
4034.16    1015.746000
4035.79    760.279800
4037.41    869.232500
4039.03    813.991600
4040.66    864.865900
4042.28    722.331200
4043.91    649.527600
4045.53    833.935200
4047.15    746.441700
4048.78    554.732500
4050.40    593.984600
4052.03    599.728100
4053.65    833.571300
4055.27    832.054000
4056.90    686.479100
4058.52    717.171300
4060.15    648.322200
4061.77    731.573500
4063.39    966.713600
4065.02    907.848900
4066.64    1133.782000
4068.27    1151.714000
4069.89    936.320200
4071.51    886.180500
4073.14    962.877900
4074.76    904.322300
4076.39    853.245900
4078.01    667.311300
4079.64    669.923800
4081.26    809.844800
4082.88    649.528900
4084.51    628.376900
4086.13    474.316300
4087.76    501.153700
4089.38    629.992900
4091.00    792.741500
4092.63    760.465200
4094.25    601.206100
4095.88    823.077600
4097.50    948.664200
4099.12    1030.477000
4100.75    1018.182000
4102.37    829.265000
4104.00    790.867200
4105.62    1129.118000
4107.24    1055.438000
4108.87    892.013100
4110.49    1100.868000
4112.12    1132.147000
4113.74    971.629900
4115.36    1067.609000
4116.99    1301.133000
4118.61    1320.733000
4120.24    1094.559000
4121.86    1077.042000
4123.48    987.910700
4125.11    1003.380000
4126.73    1091.714000
4128.36    1153.461000
4129.98    1218.035000
4131.60    1189.433000
4133.23    994.457900
4134.85    1104.661000
4136.48    1240.549000
4138.10    1210.399000
4139.72    1120.375000
4141.35    1136.596000
4142.97    1127.704000
4144.60    982.901200
4146.22    1046.742000
4147.85    1218.233000
4149.47    1241.736000
4151.09    944.688000
4152.72    833.022800
4154.34    1098.326000
4155.97    1122.021000
4157.59    1093.948000
4159.21    1074.277000
4160.84    1039.044000
4162.46    1036.333000
4164.09    1322.836000
4165.71    1163.587000
4167.33    1139.801000
4168.96    1043.711000
4170.58    1162.415000
4172.20    1102.148000
4173.83    1005.634000
4175.45    1034.668000
4177.08    1153.886000
4178.70    861.669200
4180.32    1062.529000
4181.95    1267.280000
4183.57    1130.197000
4185.20    1045.210000
4186.82    1187.021000
4188.45    1205.959000
4190.07    1102.881000
4191.69    1119.991000
4193.32    1087.813000
4194.94    1115.077000
4196.57    1095.405000
4198.19    973.096400
4199.81    997.978800
4201.44    1299.247000
4203.06    1209.371000
4204.69    998.910100
4206.31    1029.297000
4207.93    1182.773000
4209.56    983.710000
4211.18    1157.196000
4212.81    1296.841000
4214.43    1070.185000
4216.05    1045.628000
4217.68    1092.154000
4219.30    1105.038000
4220.93    865.397500
4222.55    1047.742000
4224.18    1102.347000
4225.80    893.621800
4227.42    925.806600
4229.05    1055.398000
4230.67    1057.521000
4232.30    1093.116000
4233.92    909.230700
4235.54    928.159700
4237.17    1000.414000
4238.79    1276.397000
4240.41    1142.619000
4242.04    1005.035000
4243.66    922.769700
4245.29    1051.823000
4246.91    978.359700
4248.53    982.661600
4250.16    941.520400
4251.78    979.147600
4253.41    845.345300
4255.03    1087.899000
4256.65    1248.125000
4258.28    1141.364000
4259.90    1168.505000
4261.53    1258.547000
4263.15    1152.253000
4264.78    1036.522000
4266.40    927.093300
4268.02    1066.241000
4269.65    1090.833000
4271.27    1198.620000
4272.90    1389.311000
4274.52    1188.388000
4276.14    1178.333000
4277.77    1081.436000
4279.39    1015.712000
4281.02    1101.796000
4282.64    1192.207000
4284.26    1247.325000
4285.89    1260.331000
4287.51    1066.037000
4289.14    1212.629000
4290.76    1058.028000
4292.38    1081.929000
4294.01    1061.292000
4295.63    1206.222000
4297.26    1050.376000
4298.88    1077.764000
4300.50    1125.296000
4302.13    1059.481000
4303.75    1266.158000
4305.38    1204.906000
4307.00    1080.192000
4308.62    1262.370000
4310.25    1150.164000
4311.87    1192.371000
4313.50    1304.364000
4315.12    1066.929000
4316.74    1229.425000
4318.37    1202.887000
4319.99    1356.606000
4321.62    1263.268000
4323.24    1056.751000
4324.86    1069.501000
4326.49    1152.540000
4328.11    1095.066000
4329.74    964.133100
4331.36    1169.951000
4332.98    1240.259000
4334.61    922.189400
4336.23    1074.265000
4337.86    1301.103000
4339.48    1165.128000
4341.10    1144.896000
4342.73    1215.914000
4344.35    1264.659000
4345.98    1137.201000
4347.60    1216.116000
4349.23    1048.225000
4350.85    990.387500
4352.47    1072.966000
4354.10    1029.584000
4355.72    1163.332000
4357.35    1149.166000
4358.97    1066.069000
4360.59    1090.499000
4362.22    1133.321000
4363.84    1097.343000
4365.47    1157.449000
4367.09    1273.084000
4368.71    1002.282000
4370.34    1279.747000
4371.96    1400.390000
4373.59    1052.819000
4375.21    1001.590000
4376.83    1118.616000
4378.46    1036.450000
4380.08    1115.253000
4381.71    1071.384000
4383.33    1055.427000
4384.95    1148.379000
4386.58    1132.964000
4388.20    1150.811000
4389.83    1026.337000
4391.45    1121.374000
4393.07    1207.556000
4394.70    1162.175000
4396.32    1115.101000
4397.95    1075.629000
4399.57    885.965600
4401.19    890.792500
4402.82    1133.870000
4404.44    1213.212000
4406.07    1108.915000
4407.69    1106.593000
4409.31    1189.800000
4410.94    1266.503000
4412.56    1161.512000
4414.19    941.422900
4415.81    1032.383000
4417.44    1108.051000
4419.06    1052.786000
4420.68    1113.463000
4422.31    1123.148000
4423.93    1137.289000
4425.56    1071.989000
4427.18    1037.958000
4428.80    881.803700
4430.43    976.964800
4432.05    948.093400
4433.68    831.919600
4435.30    855.869600
4436.92    967.796900
4438.55    871.560400
4440.17    977.514000
4441.80    1143.785000
4443.42    1184.154000
4445.04    1119.344000
4446.67    1161.240000
4448.29    1361.907000
4449.92    1242.932000
4451.54    1084.880000
4453.16    1047.645000
4454.79    1195.994000
4456.41    1236.211000
4458.04    1213.576000
4459.66    1194.508000
4461.28    1166.086000
4462.91    1185.113000
4464.53    1038.583000
4466.16    1130.132000
4467.78    1179.426000
4469.40    1261.514000
4471.03    1384.084000
4472.65    1150.396000
4474.28    1025.699000
4475.90    1235.368000
4477.52    1049.717000
4479.15    1120.816000
4480.77    1114.006000
4482.40    1062.727000
4484.02    1128.084000
4485.65    1186.699000
4487.27    1176.051000
4488.89    1178.568000
4490.52    1203.786000
4492.14    1408.866000
4493.77    1271.658000
4495.39    1330.422000
4497.01    1346.769000
4498.64    1250.199000
4500.26    1211.371000
4501.89    1091.613000
4503.51    1216.899000
4505.13    1329.488000
4506.76    1199.107000
4508.38    1172.154000
4510.01    1139.915000
4511.63    1103.435000
4513.25    1100.611000
4514.88    992.250800
4516.50    1162.457000
4518.13    1099.833000
4519.75    1097.810000
4521.38    1083.700000
4523.00    1188.064000
4524.62    1201.383000
4526.25    1420.124000
4527.87    1428.985000
4529.49    1273.420000
4531.12    1268.040000
4532.74    1234.569000
4534.37    1338.582000
4535.99    1289.286000
4537.61    1081.299000
4539.24    1263.218000
4540.86    1322.393000
4542.49    1280.621000
4544.11    1343.966000
4545.73    1300.406000
4547.36    1153.972000
4548.98    1458.078000
4550.61    1166.344000
4552.23    1338.552000
4553.85    1408.612000
4555.48    1233.883000
4557.10    1206.108000
4558.73    1409.996000
4560.35    1296.977000
4561.98    1252.785000
4563.60    1167.278000
4565.22    1207.485000
4566.85    1182.499000
4568.47    1216.942000
4570.10    1269.487000
4571.72    1374.482000
4573.34    1419.435000
4574.97    1347.361000
4576.59    1313.405000
4578.22    1385.143000
4579.84    1321.308000
4581.46    1345.863000
4583.09    1189.271000
4584.71    1426.731000
4586.34    1279.617000
4587.96    1251.692000
4589.58    1111.686000
4591.21    1107.993000
4592.83    1199.509000
4594.46    1122.006000
4596.08    1200.046000
4597.70    1181.609000
4599.33    1313.931000
4600.95    1179.676000
4602.58    1252.139000
4604.20    1294.393000
4605.82    1323.944000
4607.45    1325.672000
4609.07    1486.799000
4610.70    1292.218000
4612.32    1386.791000
4613.94    1308.088000
4615.57    1255.498000
4617.19    1310.575000
4618.82    1377.415000
4620.44    1328.285000
4622.06    1268.351000
4623.69    1332.363000
4625.31    1457.425000
4626.94    1253.234000
4628.56    1482.309000
4630.19    1484.439000
4631.81    1379.636000
4633.43    1399.876000
4635.06    1286.631000
4636.68    1499.343000
4638.31    1406.002000
4639.93    1435.231000
4641.55    1507.400000
4643.18    1424.794000
4644.80    1499.520000
4646.43    1460.101000
4648.05    1330.146000
4649.67    1327.236000
4651.30    1357.955000
4652.92    1491.120000
4654.55    1585.110000
4656.17    1339.433000
4657.79    1371.084000
4659.42    1391.135000
4661.04    1167.421000
4662.67    1238.048000
4664.29    1250.658000
4665.91    1218.858000
4667.54    1145.565000
4669.16    1346.375000
4670.79    1378.262000
4672.41    1319.396000
4674.03    1367.782000
4675.66    1488.972000
4677.28    1446.684000
4678.91    1475.176000
4680.53    1440.133000
4682.15    1480.048000
4683.78    1296.562000
4685.40    1325.068000
4687.03    1333.296000
4688.65    1362.266000
4690.27    1408.373000
4691.90    1318.572000
4693.52    1334.064000
4695.15    1471.962000
4696.77    1502.400000
4698.40    1278.564000
4700.02    1290.641000
4701.64    1308.406000
4703.27    1391.671000
4704.89    1305.698000
4706.52    1322.592000
4708.14    1367.344000
4709.76    1290.598000
4711.39    1336.297000
4713.01    1368.854000
4714.64    1434.902000
4716.26    1382.125000
4717.88    1328.692000
4719.51    1242.502000
4721.13    1263.569000
4722.76    1318.152000
4724.38    1371.006000
4726.00    1392.809000
4727.63    1307.963000
4729.25    1438.754000
4730.88    1449.810000
4732.50    1371.520000
4734.12    1289.095000
4735.75    1308.448000
4737.37    1416.492000
4739.00    1343.094000
4740.62    1396.377000
4742.24    1499.672000
4743.87    1390.721000
4745.49    1378.882000
4747.12    1577.762000
4748.74    1596.140000
4750.36    1473.165000
4751.99    1365.430000
4753.61    1471.094000
4755.24    1433.246000
4756.86    1411.750000
4758.48    1443.837000
4760.11    1456.275000
4761.73    1427.030000
4763.36    1398.405000
4764.98    1398.675000
4766.60    1265.293000
4768.23    1326.454000
4769.85    1375.831000
4771.48    1369.330000
4773.10    1396.822000
4774.73    1412.433000
4776.35    1349.917000
4777.97    1387.314000
4779.60    1432.639000
4781.22    1299.960000
4782.85    1458.702000
4784.47    1558.479000
4786.09    1329.108000
4787.72    1278.707000
4789.34    1278.809000
4790.97    1361.489000
4792.59    1391.685000
4794.21    1347.221000
4795.84    1478.883000
4797.46    1496.426000
4799.09    1421.368000
4800.71    1416.113000
4802.33    1278.228000
4803.96    1364.000000
4805.58    1363.822000
4807.21    1268.863000
4808.83    1287.347000
4810.45    1380.731000
4812.08    1332.620000
4813.70    1301.918000
4815.33    1502.003000
4816.95    1435.121000
4818.57    1360.484000
4820.20    1499.484000
4821.82    1345.685000
4823.45    1352.243000
4825.07    1391.501000
4826.69    1327.985000
4828.32    1358.171000
4829.94    1334.065000
4831.57    1371.898000
4833.19    1376.269000
4834.81    1384.758000
4836.44    1424.870000
4838.06    1403.243000
4839.69    1447.794000
4841.31    1239.339000
4842.94    1386.224000
4844.56    1372.896000
4846.18    1287.143000
4847.81    1331.065000
4849.43    1402.443000
4851.06    1408.528000
4852.68    1353.885000
4854.30    1467.149000
4855.93    1455.495000
4857.55    1394.099000
4859.18    1268.309000
4860.80    1447.018000
4862.42    1417.999000
4864.05    1417.341000
4865.67    1504.760000
4867.30    1441.994000
4868.92    1477.231000
4870.54    1369.379000
4872.17    1280.903000
4873.79    1358.656000
4875.42    1348.596000
4877.04    1304.723000
4878.66    1475.097000
4880.29    1268.891000
4881.91    1396.224000
4883.54    1403.782000
4885.16    1425.251000
4886.78    1395.259000
4888.41    1380.284000
4890.03    1453.724000
4891.66    1451.523000
4893.28    1548.595000
4894.90    1322.983000
4896.53    1367.351000
4898.15    1267.958000
4899.78    1262.925000
4901.40    1536.356000
4903.02    1403.764000
4904.65    1271.511000
4906.27    1218.045000
4907.90    1400.907000
4909.52    1447.926000
4911.15    1463.096000
4912.77    1368.942000
4914.39    1300.217000
4916.02    1491.377000
4917.64    1476.788000
4919.27    1428.862000
4920.89    1438.386000
4922.51    1383.897000
4924.14    1379.141000
4925.76    1360.242000
4927.39    1370.595000
4929.01    1367.735000
4930.63    1352.923000
4932.26    1375.935000
4933.88    1418.984000
4935.51    1350.339000
4937.13    1409.320000
4938.75    1386.778000
4940.38    1554.897000
4942.00    1435.357000
4943.62    1416.282000
4945.25    1375.916000
4946.87    1563.485000
4948.50    1363.847000
4950.12    1239.077000
4951.75    1208.104000
4953.37    1336.578000
4954.99    1387.861000
4956.62    1384.252000
4958.24    1519.115000
4959.87    1490.663000
4961.49    1333.844000
4963.11    1306.301000
4964.74    1435.853000
4966.36    1427.188000
4967.99    1368.755000
4969.61    1312.917000
4971.23    1352.325000
4972.86    1419.544000
4974.48    1323.126000
4976.11    1403.933000
4977.73    1382.870000
4979.35    1330.237000
4980.98    1409.622000
4982.60    1396.248000
4984.23    1244.002000
4985.85    1302.156000
4987.48    1348.227000
4989.10    1225.843000
4990.72    1247.526000
4992.35    1307.443000
4993.97    1239.819000
4995.60    1359.609000
4997.22    1313.706000
4998.84    1321.730000
5000.47    1232.547000
5002.09    1175.550000
5003.72    1577.896000
5005.34    1825.520000
5006.96    1639.425000
5008.59    1386.432000
5010.21    1189.092000
5011.84    1221.359000
5013.46    1342.891000
5015.08    1240.402000
5016.71    1161.083000
5018.33    1211.742000
5019.96    1341.452000
5021.58    1310.480000
5023.20    1378.280000
5024.83    1182.034000
5026.45    1225.627000
5028.08    1331.861000
5029.70    1326.159000
5031.32    1354.002000
5032.95    1311.736000
5034.57    1335.345000
5036.20    1301.190000
5037.82    1239.844000
5039.44    1408.734000
5041.07    1200.772000
5042.69    1422.982000
5044.32    1372.502000
5045.94    1422.701000
5047.56    1438.160000
5049.19    1343.470000
5050.81    1570.259000
5052.44    1333.450000
5054.06    1414.541000
5055.69    1266.207000
5057.31    1240.851000
5058.93    1169.124000
5060.56    1253.489000
5062.18    1341.901000
5063.81    1389.064000
5065.43    1295.267000
5067.05    1200.239000
5068.68    1167.124000
5070.30    1371.307000
5071.93    1203.188000
5073.55    1267.370000
5075.17    1310.002000
5076.80    1352.965000
5078.42    1483.699000
5080.05    1437.432000
5081.67    1423.031000
5083.29    1248.681000
5084.92    1247.853000
5086.54    1181.252000
5088.17    1300.721000
5089.79    1385.779000
5091.41    1326.671000
5093.04    1434.265000
5094.66    1431.392000
5096.29    1455.139000
5097.91    1440.484000
5099.53    1437.768000
5101.16    1376.788000
5102.78    1403.140000
5104.41    1470.979000
5106.03    1490.489000
5107.65    1293.106000
5109.28    1352.209000
5110.90    1407.341000
5112.53    1375.632000
5114.15    1258.092000
5115.77    1378.233000
5117.40    1294.533000
5119.02    1301.400000
5120.65    1457.195000
5122.27    1421.766000
5123.90    1307.008000
5125.52    1320.333000
5127.14    1362.633000
5128.77    1282.340000
5130.39    1266.469000
5132.02    1207.953000
5133.64    1233.126000
5135.26    1221.012000
5136.89    1260.020000
5138.51    1324.036000
5140.14    1302.162000
5141.76    1467.599000
5143.38    1399.187000
5145.01    1248.031000
5146.63    1341.211000
5148.26    1374.373000
5149.88    1263.243000
5151.50    1354.893000
5153.13    1411.215000
5154.75    1426.357000
5156.38    1355.720000
5158.00    1364.410000
5159.62    1318.865000
5161.25    1372.478000
5162.87    1149.101000
5164.50    1095.314000
5166.12    1235.083000
5167.74    1241.464000
5169.37    1429.287000
5170.99    1200.505000
5172.62    1167.750000
5174.24    1308.097000
5175.86    1365.237000
5177.49    1316.326000
5179.11    1453.286000
5180.74    1413.775000
5182.36    1332.979000
5183.98    1350.787000
5185.61    1211.053000
5187.23    1254.345000
5188.86    1249.520000
5190.48    1294.190000
5192.10    1237.772000
5193.73    1302.825000
5195.35    1329.414000
5196.98    1423.909000
5198.60    1318.757000
5200.23    1264.347000
5201.85    1281.569000
5203.47    1420.802000
5205.10    1332.095000
5206.72    1360.387000
5208.35    1254.489000
5209.97    1311.310000
5211.59    1352.518000
5213.22    1318.381000
5214.84    1347.030000
5216.47    1310.330000
5218.09    1421.209000
5219.71    1427.243000
5221.34    1352.195000
5222.96    1360.926000
5224.59    1162.592000
5226.21    1317.312000
5227.83    1132.120000
5229.46    1190.292000
5231.08    1288.673000
5232.71    1285.957000
5234.33    1272.082000
5235.95    1146.305000
5237.58    1255.624000
5239.20    1403.399000
5240.83    1380.562000
5242.45    1326.830000
5244.07    1387.493000
5245.70    1386.025000
5247.32    1405.389000
5248.95    1377.798000
5250.57    1447.459000
5252.19    1257.079000
5253.82    1331.549000
5255.44    1083.605000
5257.07    1307.948000
5258.69    1258.866000
5260.31    1337.440000
5261.94    1226.144000
5263.56    1244.288000
5265.19    1310.115000
5266.81    1418.862000
5268.43    1472.885000
5270.06    1451.908000
5271.68    1356.771000
5273.31    1274.210000
5274.93    1280.640000
5276.56    1227.459000
5278.18    1239.762000
5279.80    1033.412000
5281.43    1291.608000
5283.05    1193.184000
5284.68    1379.924000
5286.30    1274.891000
5287.92    1102.024000
5289.55    1296.372000
5291.17    1292.031000
5292.80    1211.594000
5294.42    1302.284000
5296.04    1336.278000
5297.67    1168.437000
5299.29    1220.523000
5300.91    1380.541000
5302.54    1215.409000
5304.16    1169.136000
5305.79    1191.541000
5307.41    1318.568000
5309.03    1209.987000
5310.66    1361.716000
5312.28    1360.716000
5313.91    1299.301000
5315.53    1288.198000
5317.16    1183.772000
5318.78    1063.094000
5320.40    958.932600
5322.03    1087.720000
5323.65    955.171000
5325.28    1052.592000
5326.90    1099.768000
5328.52    1092.999000
5330.15    1117.773000
5331.77    1148.406000
5333.40    1130.359000
5335.02    1133.962000
5336.64    1101.720000
5338.27    1096.315000
5339.89    1066.788000
5341.52    1154.646000
5343.14    1166.600000
5344.76    1266.770000
5346.39    1248.355000
5348.01    1189.326000
5349.64    1306.556000
5351.26    1335.949000
5352.89    1294.377000
5354.51    1373.114000
5356.13    1263.090000
5357.76    1260.976000
5359.38    1227.344000
5361.01    1159.170000
5362.63    1137.943000
5364.25    1200.095000
5365.88    1214.335000
5367.50    1301.745000
5369.12    1229.958000
5370.75    1257.876000
5372.37    1296.865000
5374.00    1243.042000
5375.62    1417.314000
5377.24    1335.590000
5378.87    1342.136000
5380.49    1219.688000
5382.12    1124.415000
5383.74    1289.627000
5385.36    1374.873000
5386.99    1281.996000
5388.61    1334.204000
5390.24    1368.778000
5391.86    1307.821000
5393.49    1384.153000
5395.11    1404.427000
5396.73    1342.221000
5398.36    1366.670000
5399.98    1363.948000
5401.61    1285.543000
5403.23    1240.119000
5404.85    1307.132000
5406.48    1333.856000
5408.10    1321.208000
5409.73    1341.612000
5411.35    1232.838000
5412.97    1337.316000
5414.60    1408.700000
5416.22    1360.679000
5417.85    1340.129000
5419.47    1241.567000
5421.09    1185.195000
5422.72    1308.520000
5424.34    1273.473000
5425.97    1160.739000
5427.59    1143.940000
5429.21    1335.570000
5430.84    1348.384000
5432.46    1393.326000
5434.09    1537.788000
5435.71    1406.848000
5437.34    1335.606000
5438.96    1382.548000
5440.58    1479.288000
5442.21    1403.920000
5443.83    1377.453000
5445.45    1474.241000
5447.08    1373.790000
5448.70    1329.532000
5450.33    1497.942000
5451.95    1372.994000
5453.57    1322.114000
5455.20    1397.232000
5456.82    1273.530000
5458.45    1295.975000
5460.07    1414.675000
5461.69    1403.796000
5463.32    1407.751000
5464.94    1456.524000
5466.57    1472.351000
5468.19    1446.119000
5469.81    1365.802000
5471.44    1492.858000
5473.06    1398.535000
5474.69    1446.555000
5476.31    1448.005000
5477.94    1388.917000
5479.56    1482.491000
5481.18    1403.353000
5482.81    1288.520000
5484.43    1354.538000
5486.06    1334.206000
5487.68    1266.289000
5489.30    1280.190000
5490.93    1214.218000
5492.55    1304.649000
5494.18    1441.620000
5495.80    1450.247000
5497.42    1408.547000
5499.05    1515.786000
5500.67    1363.936000
5502.30    1438.283000
5503.92    1433.185000
5505.54    1352.736000
5507.17    1277.796000
5508.79    1441.469000
5510.42    1410.197000
5512.04    1534.586000
5513.66    1377.815000
5515.29    1385.797000
5516.91    1455.185000
5518.54    1508.358000
5520.16    1427.870000
5521.78    1339.759000
5523.41    1507.347000
5525.03    1300.680000
5526.66    1322.385000
5528.28    1424.280000
5529.90    1304.656000
5531.53    1380.131000
5533.15    1377.049000
5534.78    1299.207000
5536.40    1469.484000
5538.02    1436.154000
5539.65    1447.570000
5541.27    1345.595000
5542.90    1493.345000
5544.52    1447.221000
5546.15    1448.080000
5547.77    1485.943000
5549.39    1508.973000
5551.02    1458.000000
5552.64    1339.988000
5554.27    1392.744000
5555.89    1402.456000
5557.51    1378.339000
5559.14    1292.548000
5560.76    1225.329000
5562.39    1505.010000
5564.01    1418.424000
5565.63    1406.509000
5567.26    1324.581000
5568.88    1236.720000
5570.51    1312.144000
5572.13    969.605000
5573.75    242.530900
5575.38    449.332900
5577.00    1417.904000
5578.63    2143.296000
5580.25    1418.911000
5581.88    1791.702000
5583.50    1638.068000
5585.12    1333.645000
5586.75    1388.477000
5588.37    1236.567000
5589.99    1358.745000
5591.62    1370.897000
5593.24    1422.815000
5594.87    1587.915000
5596.49    1453.844000
5598.11    1415.813000
5599.74    1707.600000
5601.36    1610.959000
5602.99    1502.043000
5604.61    1384.089000
5606.23    1241.153000
5607.86    1515.141000
5609.48    1439.834000
5611.11    1275.588000
5612.73    1368.287000
5614.35    1333.503000
5615.98    1365.817000
5617.60    1430.264000
5619.23    1419.059000
5620.85    1388.732000
5622.48    1398.820000
5624.10    1445.605000
5625.72    1299.585000
5627.35    1401.919000
5628.97    1533.093000
5630.60    1719.473000
5632.22    1255.805000
5633.84    1359.488000
5635.47    1431.361000
5637.09    1338.043000
5638.72    1347.559000
5640.34    1333.416000
5641.96    1338.710000
5643.59    1443.194000
5645.21    1482.435000
5646.84    1440.945000
5648.46    1399.305000
5650.08    1537.561000
5651.71    1342.215000
5653.33    1278.765000
5654.96    1278.507000
5656.58    1369.768000
5658.20    1470.302000
5659.83    1605.927000
5661.45    1775.054000
5663.08    1256.758000
5664.70    1319.729000
5666.32    1330.638000
5667.95    1273.520000
5669.57    1240.865000
5671.20    1380.434000
5672.82    1492.156000
5674.44    1543.168000
5676.07    1469.740000
5677.69    1504.979000
5679.32    1584.771000
5680.94    1776.100000
5682.56    1735.871000
5684.19    1615.821000
5685.81    1492.951000
5687.44    1496.301000
5689.06    1435.568000
5690.69    1378.626000
5692.31    1320.916000
5693.93    1292.818000
5695.56    1421.798000
5697.18    1416.584000
5698.81    1317.348000
5700.43    1196.138000
5702.05    1278.748000
5703.68    1381.698000
5705.30    1517.633000
5706.93    1376.679000
5708.55    1409.144000
5710.17    1422.676000
5711.80    1395.860000
5713.42    1351.713000
5715.05    1410.726000
5716.67    1452.194000
5718.29    1415.174000
5719.92    1485.028000
5721.54    1492.755000
5723.17    1458.634000
5724.79    1289.500000
5726.41    1267.273000
5728.04    1365.637000
5729.66    1501.555000
5731.29    1543.859000
5732.91    1417.495000
5734.53    1441.516000
5736.16    1544.425000
5737.78    1328.880000
5739.41    1374.092000
5741.03    1468.995000
5742.65    1622.221000
5744.28    1409.577000
5745.90    1367.141000
5747.53    1343.000000
5749.15    1342.334000
5750.77    1239.573000
5752.40    1294.392000
5754.02    1331.465000
5755.65    1293.540000
5757.27    1287.770000
5758.90    1360.563000
5760.52    1445.218000
5762.14    1525.759000
5763.77    1363.335000
5765.39    1213.762000
5767.02    1103.458000
5768.64    1326.739000
5770.26    1391.058000
5771.89    1359.202000
5773.51    1273.397000
5775.14    1216.614000
5776.76    1104.820000
5778.38    1134.313000
5780.01    1289.076000
5781.63    1529.204000
5783.26    1497.288000
5784.88    1399.542000
5786.50    1205.612000
5788.13    1200.517000
5789.75    1297.350000
5791.38    1380.102000
5793.00    1426.918000
5794.62    1568.130000
5796.25    1560.860000
5797.87    1494.785000
5799.50    1299.521000
5801.12    1229.429000
5802.74    1220.287000
5804.37    1248.791000
5805.99    1429.754000
5807.62    1487.760000
5809.24    1389.596000
5810.86    1212.900000
5812.49    1076.528000
5814.11    1169.473000
5815.74    1246.212000
5817.36    1313.989000
5818.98    1446.767000
5820.61    1413.799000
5822.23    1405.451000
5823.86    1427.737000
5825.48    1472.836000
5827.10    1405.403000
5828.73    1339.352000
5830.35    1285.507000
5831.98    1288.947000
5833.60    1288.796000
5835.23    1290.209000
5836.85    1303.682000
5838.47    1556.214000
5840.10    1565.507000
5841.72    1485.008000
5843.35    1244.317000
5844.97    1438.922000
5846.59    1506.288000
5848.22    1508.382000
5849.84    1356.522000
5851.47    1398.122000
5853.09    1385.532000
5854.71    1332.244000
5856.34    1217.097000
5857.96    1288.120000
5859.59    1368.387000
5861.21    1466.747000
5862.83    1501.079000
5864.46    1527.825000
5866.08    1592.741000
5867.71    1738.682000
5869.33    1460.547000
5870.95    1359.398000
5872.58    1318.621000
5874.20    1396.549000
5875.83    1349.162000
5877.45    1288.669000
5879.07    1223.549000
5880.70    1157.381000
5882.32    1365.076000
5883.95    1358.102000
5885.57    1267.388000
5887.19    1145.556000
5888.82    1119.882000
5890.44    1283.122000
5892.07    1563.113000
5893.69    1685.860000
5895.31    1768.080000
5896.94    1667.040000
5898.56    1378.960000
5900.19    1405.157000
5901.81    1502.733000
5903.44    1540.483000
5905.06    1488.809000
5906.68    1391.966000
5908.31    1466.720000
5909.93    1470.312000
5911.56    1256.296000
5913.18    1305.587000
5914.80    1474.108000
5916.43    1626.864000
5918.05    1630.448000
5919.68    1519.571000
5921.30    1428.789000
5922.92    1361.556000
5924.55    1465.048000
5926.17    1276.087000
5927.80    1318.414000
5929.42    1466.653000
5931.04    1295.879000
5932.67    1343.652000
5934.29    1419.130000
5935.92    1525.216000
5937.54    1360.499000
5939.16    1452.219000
5940.79    1496.938000
5942.41    1481.638000
5944.04    1406.837000
5945.66    1215.645000
5947.28    1123.435000
5948.91    1266.484000
5950.53    1375.249000
5952.16    1373.653000
5953.78    1376.789000
5955.40    1469.502000
5957.03    1445.851000
5958.65    1484.704000
5960.28    1513.582000
5961.90    1358.644000
5963.52    1417.826000
5965.15    1475.776000
5966.77    1537.896000
5968.40    1652.986000
5970.02    1302.619000
5971.65    1193.757000
5973.27    1253.868000
5974.89    1492.648000
5976.52    1433.528000
5978.14    1390.351000
5979.77    1361.582000
5981.39    1237.682000
5983.01    1241.434000
5984.64    1302.789000
5986.26    1477.124000
5987.89    1230.708000
5989.51    1248.841000
5991.13    1279.397000
5992.76    1241.330000
5994.38    1315.321000
5996.01    1446.935000
5997.63    1570.581000
5999.25    1570.424000
6000.88    1324.196000
6002.50    1355.289000
6004.12    1479.345000
6005.75    1380.436000
6007.37    1333.313000
6009.00    1369.852000
6010.62    1459.562000
6012.25    1442.803000
6013.87    1466.097000
6015.49    1379.896000
6017.12    1165.913000
6018.74    1371.380000
6020.37    1324.989000
6021.99    1375.311000
6023.61    1622.827000
6025.24    1476.840000
6026.86    1384.539000
6028.49    1341.118000
6030.11    1417.648000
6031.73    1237.677000
6033.36    1227.967000
6034.98    1250.000000
6036.61    1258.423000
6038.23    1499.231000
6039.85    1442.394000
6041.48    1299.302000
6043.10    1386.894000
6044.73    1521.982000
6046.35    1461.143000
6047.98    1287.662000
6049.60    1355.872000
6051.22    1333.971000
6052.85    1314.156000
6054.47    1294.579000
6056.10    1300.554000
6057.72    1363.635000
6059.34    1338.731000
6060.97    1174.985000
6062.59    1218.083000
6064.22    1122.223000
6065.84    1078.487000
6067.46    1196.947000
6069.09    1280.045000
6070.71    1239.388000
6072.34    1189.452000
6073.96    1202.324000
6075.58    1292.146000
6077.21    1360.393000
6078.83    1414.141000
6080.46    1405.496000
6082.08    1291.979000
6083.70    1277.937000
6085.33    1312.168000
6086.95    1343.063000
6088.58    1416.393000
6090.20    1405.232000
6091.82    1323.521000
6093.45    1255.703000
6095.07    1351.064000
6096.70    1442.774000
6098.32    1539.505000
6099.94    1433.485000
6101.57    1425.311000
6103.19    1380.756000
6104.82    1238.869000
6106.44    1249.171000
6108.06    1275.328000
6109.69    1312.870000
6111.31    1391.245000
6112.94    1458.248000
6114.56    1449.595000
6116.19    1404.910000
6117.81    1277.002000
6119.43    1221.964000
6121.06    1288.766000
6122.68    1409.946000
6124.31    1486.754000
6125.93    1452.628000
6127.55    1395.233000
6129.18    1314.146000
6130.80    1290.484000
6132.43    1353.472000
6134.05    1402.213000
6135.67    1437.789000
6137.30    1276.522000
6138.92    1141.507000
6140.55    1115.248000
6142.17    1301.641000
6143.79    1588.739000
6145.42    1572.541000
6147.04    1505.922000
6148.66    1406.513000
6150.29    1441.620000
6151.91    1435.586000
6153.54    1423.326000
6155.16    1440.921000
6156.79    1432.015000
6158.41    1375.457000
6160.03    1304.172000
6161.66    1332.607000
6163.28    1307.449000
6164.91    1302.849000
6166.53    1308.916000
6168.15    1363.711000
6169.78    1405.669000
6171.40    1369.413000
6173.03    1245.625000
6174.65    1321.047000
6176.27    1568.072000
6177.90    1662.150000
6179.52    1495.621000
6181.15    1344.844000
6182.77    1276.566000
6184.40    1223.124000
6186.02    1186.403000
6187.64    1488.069000
6189.27    1433.946000
6190.89    1316.385000
6192.52    1255.792000
6194.14    1428.947000
6195.76    1417.911000
6197.39    1335.144000
6199.01    1213.145000
6200.64    1155.002000
6202.26    1255.615000
6203.88    1446.385000
6205.51    1485.679000
6207.13    1493.267000
6208.76    1514.338000
6210.38    1548.985000
6212.00    1464.640000
6213.63    1372.255000
6215.25    1337.679000
6216.88    1392.613000
6218.50    1465.182000
6220.12    1493.606000
6221.75    1505.332000
6223.37    1491.739000
6224.99    1331.236000
6226.62    1345.397000
6228.24    1408.507000
6229.87    1554.060000
6231.49    1424.648000
6233.11    1320.944000
6234.74    1256.330000
6236.36    1467.413000
6237.99    1354.011000
6239.61    1243.582000
6241.24    1142.584000
6242.86    1350.311000
6244.48    1389.526000
6246.11    1398.659000
6247.73    1384.657000
6249.36    1309.275000
6250.98    1305.388000
6252.60    1310.987000
6254.23    1334.603000
6255.85    1371.034000
6257.48    1341.306000
6259.10    1331.366000
6260.73    1377.838000
6262.35    1559.000000
6263.97    1460.228000
6265.60    1357.758000
6267.22    1395.313000
6268.85    1383.344000
6270.47    1288.155000
6272.09    1202.355000
6273.72    1340.396000
6275.34    1263.786000
6276.97    1255.457000
6278.59    1272.989000
6280.21    1265.654000
6281.84    1284.751000
6283.46    1246.941000
6285.09    1162.895000
6286.71    1065.694000
6288.33    1120.902000
6289.96    1205.561000
6291.58    1333.681000
6293.20    1411.624000
6294.83    1315.670000
6296.45    1223.725000
6298.08    1149.556000
6299.70    1408.543000
6301.32    1323.641000
6302.95    1278.050000
6304.57    1500.519000
6306.20    1333.413000
6307.82    1311.782000
6309.44    1324.383000
6311.07    1345.653000
6312.69    1381.900000
6314.32    1331.519000
6315.94    1240.560000
6317.56    1126.658000
6319.19    1335.409000
6320.81    1321.783000
6322.44    1173.417000
6324.06    1434.410000
6325.69    1212.553000
6327.31    1150.780000
6328.93    1250.777000
6330.56    1176.264000
6332.18    1356.210000
6333.81    1390.917000
6335.43    1169.596000
6337.05    1148.943000
6338.68    1229.572000
6340.30    1329.248000
6341.93    1466.705000
6343.55    1313.637000
6345.18    1173.915000
6346.80    1075.942000
6348.42    1170.998000
6350.05    1037.583000
6351.67    1104.327000
6353.30    1223.628000
6354.92    1181.619000
6356.54    1201.896000
6358.17    1142.240000
6359.79    1050.308000
6361.41    1440.028000
6363.04    1194.362000
6364.66    1084.070000
6366.29    1087.902000
6367.91    1311.481000
6369.53    1476.667000
6371.16    1540.223000
6372.78    1462.438000
6374.41    1362.059000
6376.03    1325.337000
6377.65    1259.526000
6379.28    1105.662000
6380.90    1149.922000
6382.53    1234.620000
6384.15    1258.691000
6385.77    1012.633000
6387.40    1067.759000
6389.02    1166.562000
6390.65    1275.576000
6392.27    1344.798000
6393.90    1267.846000
6395.52    1266.997000
6397.14    1293.747000
6398.77    1166.463000
6400.39    1137.208000
6402.02    1174.490000
6403.64    1269.008000
6405.26    1252.656000
6406.89    1213.119000
6408.51    1193.205000
6410.14    1201.148000
6411.76    1237.578000
6413.38    1297.530000
6415.01    1308.665000
6416.63    1217.297000
6418.26    1223.941000
6419.88    1216.789000
6421.51    1236.978000
6423.13    1368.263000
6424.75    1272.007000
6426.38    1197.149000
6428.00    1130.487000
6429.62    1096.296000
6431.25    1132.968000
6432.87    1162.538000
6434.50    1191.639000
6436.12    1262.593000
6437.74    1269.946000
6439.37    1217.593000
6440.99    1116.515000
6442.62    990.191100
6444.24    896.500100
6445.86    899.457600
6447.49    1016.320000
6449.11    1209.471000
6450.74    1235.533000
6452.36    1209.320000
6453.98    1099.655000
6455.61    1182.090000
6457.23    1238.973000
6458.86    1287.238000
6460.48    1325.312000
6462.10    1301.778000
6463.73    1279.583000
6465.35    1246.621000
6466.98    1162.844000
6468.60    1203.284000
6470.23    1258.038000
6471.85    1321.848000
6473.47    1413.518000
6475.10    1304.943000
6476.72    1295.937000
6478.35    1342.415000
6479.97    1232.979000
6481.59    1226.070000
6483.22    1288.709000
6484.84    1429.463000
6486.47    1214.467000
6488.09    1124.764000
6489.71    1104.363000
6491.34    1195.006000
6492.96    1296.130000
6494.59    1221.854000
6496.21    1171.224000
6497.83    1233.853000
6499.46    1302.599000
6501.08    1311.766000
6502.71    1310.267000
6504.33    1316.958000
6505.95    1188.359000
6507.58    1086.886000
6509.20    1018.648000
6510.83    1200.311000
6512.45    1316.557000
6514.07    1343.157000
6515.70    1322.996000
6517.32    1388.371000
6518.95    1326.433000
6520.57    1240.810000
6522.19    1126.154000
6523.82    1100.878000
6525.44    1053.379000
6527.07    1041.573000
6528.69    1084.091000
6530.31    1041.140000
6531.94    986.965000
6533.56    997.031700
6535.19    1168.327000
6536.81    1234.466000
6538.44    1199.755000
6540.06    1185.992000
6541.68    1331.190000
6543.31    1345.366000
6544.93    1218.125000
6546.56    1071.827000
6548.18    1132.565000
6549.80    1237.472000
6551.43    1249.968000
6553.05    1209.458000
6554.68    1061.300000
6556.30    1114.261000
6557.92    1232.206000
6559.55    1411.936000
6561.17    1333.991000
6562.80    1289.096000
6564.42    1285.347000
6566.04    1339.343000
6567.67    1229.960000
6569.29    1230.452000
6570.92    1283.548000
6572.54    1441.557000
6574.16    1441.060000
6575.79    1308.654000
6577.41    1187.812000
6579.04    1171.300000
6580.66    1388.432000
6582.28    1443.030000
6583.91    1439.767000
6585.53    1347.733000
6587.16    1282.444000
6588.78    1275.312000
6590.40    1283.938000
6592.03    1197.479000
6593.65    1182.883000
6595.28    1217.881000
6596.90    1287.531000
6598.52    1423.570000
6600.15    1414.600000
6601.77    1366.326000
6603.40    1266.825000
6605.02    1299.607000
6606.65    1313.990000
6608.27    1312.006000
6609.89    1284.571000
6611.52    1382.079000
6613.14    1437.178000
6614.77    1441.288000
6616.39    1313.442000
6618.01    1267.741000
6619.64    1246.754000
6621.26    1234.238000
6622.89    1244.901000
6624.51    1185.846000
6626.13    1174.787000
6627.76    1179.417000
6629.38    1176.522000
6631.01    1325.643000
6632.63    1407.993000
6634.25    1445.150000
6635.88    1208.682000
6637.50    1294.667000
6639.13    1302.894000
6640.75    1231.465000
6642.37    1221.672000
6644.00    1176.338000
6645.62    1145.030000
6647.25    1138.671000
6648.87    1210.739000
6650.49    1169.833000
6652.12    1139.096000
6653.74    1167.215000
6655.37    1252.862000
6656.99    1344.014000
6658.61    1391.409000
6660.24    1242.311000
6661.86    1188.788000
6663.49    1196.717000
6665.11    1210.877000
6666.73    1117.593000
6668.36    1057.155000
6669.98    1090.481000
6671.61    1174.254000
6673.23    1226.397000
6674.85    1230.711000
6676.48    1202.098000
6678.10    1141.977000
6679.73    1210.836000
6681.35    1316.652000
6682.98    1286.010000
6684.60    1055.108000
6686.22    994.101100
6687.85    960.357200
6689.47    963.498800
6691.10    1052.193000
6692.72    973.253200
6694.34    922.837500
6695.97    921.793800
6697.59    1100.706000
6699.22    1132.354000
6700.84    1114.278000
6702.46    1092.249000
6704.09    1158.626000
6705.71    1098.794000
6707.34    1089.050000
6708.96    1107.503000
6710.58    1237.686000
6712.21    1303.400000
6713.83    1302.805000
6715.46    1250.841000
6717.08    1139.505000
6718.70    1056.638000
6720.33    1053.650000
6721.95    1157.480000
6723.58    1305.291000
6725.20    1204.753000
6726.82    1118.641000
6728.45    1088.597000
6730.07    1151.572000
6731.70    1104.988000
6733.32    1108.353000
6734.94    1344.376000
6736.57    1300.022000
6738.19    1298.421000
6739.82    1335.232000
6741.44    1545.934000
6743.06    1534.191000
6744.69    1481.795000
6746.31    1400.726000
6747.94    1238.147000
6749.56    1244.651000
6751.19    1445.556000
6752.81    1802.277000
6754.43    2885.476000
6756.06    3228.498000
6757.68    3405.340000
6759.31    3409.541000
6760.93    2681.722000
6762.55    2083.434000
6764.18    1616.958000
6765.80    1333.310000
6767.43    1159.636000
6769.05    1169.973000
6770.67    1205.237000
6772.30    1256.453000
6773.92    1536.878000
6775.55    1707.656000
6777.17    1865.553000
6778.79    2091.999000
6780.42    2075.914000
6782.04    1995.256000
6783.67    1851.650000
6785.29    1381.978000
6786.91    1224.806000
6788.54    1188.010000
6790.16    1221.245000
6791.79    1297.868000
6793.41    1167.301000
6795.03    1022.137000
6796.66    848.691300
6798.28    1283.580000
6799.91    1199.519000
6801.53    1119.019000
6803.15    1062.908000
6804.78    1062.534000
6806.40    1043.252000
6808.03    1018.678000
6809.65    985.856500
6811.27    1235.532000
6812.90    1204.772000
6814.52    1130.897000
6816.15    1110.529000
6817.77    971.143400
6819.40    1092.705000
6821.02    1269.196000
6822.64    1154.114000
6824.27    1047.348000
6825.89    1052.341000
6827.52    1109.402000
6829.14    1009.532000
6830.76    1073.353000
6832.39    1145.737000
6834.01    1232.536000
6835.64    980.476600
6837.26    1081.225000
6838.88    1160.483000
6840.51    1213.647000
6842.13    1266.809000
6843.76    1281.267000
6845.38    1284.732000
6847.00    1275.259000
6848.63    1152.279000
6850.25    1070.739000
6851.88    996.031400
6853.50    921.431300
6855.12    1188.631000
6856.75    1231.566000
6858.37    1209.180000
6860.00    1188.553000
6861.62    1080.216000
6863.24    1010.594000
6864.87    964.680100
6866.49    1078.498000
6868.12    988.366000
6869.74    959.136800
6871.36    972.924300
6872.99    915.519300
6874.61    1042.268000
6876.24    1096.156000
6877.86    1061.744000
6879.48    989.655000
6881.11    1021.800000
6882.73    1035.555000
6884.36    1003.170000
6885.98    1093.661000
6887.60    1029.828000
6889.23    955.626500
6890.85    915.539900
6892.48    997.715200
6894.10    1044.973000
6895.73    1075.909000
6897.35    1065.871000
6898.97    1081.348000
6900.60    1064.279000
6902.22    1031.244000
6903.85    999.465600
6905.47    960.080800
6907.09    1031.261000
6908.72    1175.027000
6910.34    957.582900
6911.97    1100.027000
6913.59    1184.087000
6915.21    1210.912000
6916.84    1121.864000
6918.46    1310.628000
6920.09    1336.214000
6921.71    1049.966000
6923.33    1123.430000
6924.96    1175.349000
6926.58    1213.561000
6928.21    1227.051000
6929.83    1236.708000
6931.45    1203.815000
6933.08    1171.911000
6934.70    1195.539000
6936.33    1147.277000
6937.95    1147.122000
6939.57    1150.079000
6941.20    1022.615000
6942.82    848.684600
6944.45    779.520800
6946.07    777.495800
6947.69    1116.056000
6949.32    1154.382000
6950.94    1071.761000
6952.57    862.055500
6954.19    986.490200
6955.81    1057.148000
6957.44    1140.252000
6959.06    1256.919000
6960.69    985.813400
6962.31    860.583900
6963.94    881.065500
6965.56    1249.949000
6967.18    1284.901000
6968.81    1084.593000
6970.43    901.075900
6972.06    988.868100
6973.68    918.488900
6975.30    1107.863000
6976.93    1348.942000
6978.55    1288.931000
6980.18    1078.311000
6981.80    1024.978000
6983.42    1050.928000
6985.05    1087.972000
6986.67    1057.619000
6988.30    1019.761000
6989.92    972.445000
6991.54    950.643600
6993.17    993.737600
6994.79    1035.317000
6996.42    1080.851000
6998.04    905.361800
6999.66    917.669700
7001.29    899.674200
7002.91    778.213600
7004.54    740.907600
7006.16    922.579800
7007.78    1076.805000
7009.41    1004.039000
7011.03    973.336200
7012.66    1008.904000
7014.28    1046.148000
7015.90    968.985600
7017.53    967.483500
7019.15    1069.579000
7020.78    1201.191000
7022.40    971.771300
7024.02    959.285000
7025.65    955.516700
7027.27    955.613700
7028.90    1192.659000
7030.52    1046.268000
7032.15    985.188500
7033.77    1024.990000
7035.39    1099.651000
7037.02    1086.271000
7038.64    1073.106000
7040.27    1072.502000
7041.89    1073.932000
7043.51    997.032200
7045.14    941.486500
7046.76    993.811300
7048.39    956.917900
7050.01    935.740700
7051.63    907.468400
7053.26    823.030100
7054.88    1141.670000
7056.51    1193.396000
7058.13    1131.196000
7059.75    1022.552000
7061.38    993.961700
7063.00    986.284200
7064.62    990.888900
7066.25    1038.906000
7067.87    1017.845000
7069.50    1023.787000
7071.12    1058.910000
7072.75    1067.947000
7074.37    1136.505000
7075.99    1130.137000
7077.62    987.606900
7079.24    919.357900
7080.87    967.417400
7082.49    1011.420000
7084.11    1012.700000
7085.74    974.326000
7087.36    953.715600
7088.99    905.288300
7090.61    704.702800
7092.23    833.050100
7093.86    950.196000
7095.48    1060.569000
7097.11    1114.704000
7098.73    1069.612000
7100.35    1028.050000
7101.98    986.235100
7103.60    1014.586000
7105.23    981.695000
7106.85    986.556300
7108.48    1028.505000
7110.10    1144.745000
7111.72    1087.815000
7113.35    1002.144000
7114.97    871.792700
7116.60    861.318200
7118.22    880.463000
7119.84    901.369900
7121.47    924.998700
7123.09    1009.131000
7124.72    958.025600
7126.34    907.966600
7127.96    974.708200
7129.59    994.516100
7131.21    989.854600
7132.84    976.624900
7134.46    968.614000
7136.08    922.435700
7137.71    923.158900
7139.33    941.459100
7140.96    857.486800
7142.58    844.264300
7144.20    917.193100
7145.83    1069.907000
7147.45    808.090700
7149.08    776.206100
7150.70    767.182600
7152.32    788.754600
7153.95    1020.737000
7155.57    979.246000
7157.20    935.470200
7158.82    931.506300
7160.44    997.031700
7162.07    963.725200
7163.69    947.297300
7165.32    1056.440000
7166.94    981.487100
7168.56    929.795300
7170.19    902.761800
7171.81    1010.711000
7173.44    1015.324000
7175.06    957.953900
7176.69    874.989800
7178.31    906.878000
7179.93    933.757600
7181.56    892.960600
7183.18    798.540800
7184.81    900.779700
7186.43    929.466600
7188.05    884.263300
7189.68    741.925700
7191.30    810.863100
7192.93    853.161400
7194.55    888.157800
7196.17    918.402100
7197.80    948.711400
7199.42    883.738300
7201.05    829.171900
7202.67    849.488600
7204.29    909.995700
7205.92    910.716600
7207.54    904.060900
7209.16    946.995700
7210.79    806.966100
7212.41    809.895800
7214.04    873.419600
7215.66    970.258600
7217.29    907.853000
7218.91    889.091700
7220.53    898.006600
7222.16    1014.014000
7223.78    885.604400
7225.41    805.159300
7227.03    769.082400
7228.65    857.530000
7230.28    814.180900
7231.90    786.647300
7233.53    795.291000
7235.15    677.296400
7236.77    685.233400
7238.40    690.665200
7240.02    651.092000
7241.65    605.762600
7243.27    664.559300
7244.90    746.107500
7246.52    834.851200
7248.14    768.783700
7249.77    762.110400
7251.39    771.937800
7253.02    742.577000
7254.64    746.932000
7256.26    763.791300
7257.89    786.799600
7259.51    780.179000
7261.14    719.672100
7262.76    700.962600
7264.38    720.308500
7266.01    767.621300
7267.63    764.124600
7269.26    739.369300
7270.88    682.446400
7272.50    718.795200
7274.13    738.161200
7275.75    730.850800
7277.38    662.292300
7279.00    627.017500
7280.62    649.351000
7282.25    697.025200
7283.87    812.448400
7285.49    831.837500
7287.12    783.701700
7288.74    715.216600
7290.37    673.365700
7291.99    716.752500
7293.61    755.239100
7295.24    787.089000
7296.86    701.838600
7298.49    619.989100
7300.11    631.870800
7301.74    723.194000
7303.36    704.774800
7304.98    670.777900
7306.61    680.591900
7308.23    754.352200
7309.86    655.940200
7311.48    681.033200
7313.10    774.978000
7314.73    1015.910000
7316.35    891.843600
7317.98    861.248000
7319.60    844.020800
7321.23    822.216700
7322.85    702.661400
7324.47    788.318900
7326.10    910.087400
7327.72    892.729100
7329.35    807.562600
7330.97    754.444900
7332.59    712.048200
7334.22    671.625600
7335.84    703.613500
7337.47    749.536700
7339.09    807.205700
7340.71    854.427900
7342.34    791.427700
7343.96    724.626600
7345.59    645.821500
7347.21    693.013400
7348.83    736.944500
7350.46    771.115200
7352.08    792.795900
7353.70    815.255900
7355.33    840.211500
7356.95    847.637700
7358.58    801.508700
7360.20    743.204800
7361.82    679.815900
7363.45    620.539800
7365.07    596.340200
7366.70    750.777400
7368.32    795.385000
7369.94    783.885100
7371.57    628.244200
7373.19    628.015700
7374.82    662.549900
7376.44    721.072900
7378.06    786.404000
7379.69    758.118800
7381.31    716.485500
7382.94    656.231300
7384.56    702.153100
7386.19    628.388300
7387.81    647.410800
7389.43    839.051200
7391.06    992.061500
7392.68    843.319300
7394.31    710.669600
7395.93    706.250400
7397.55    863.986100
7399.18    848.174600
7400.80    787.103400
7402.43    686.383900
7404.05    715.225100
7405.68    732.019800
7407.30    740.699200
7408.92    719.390400
7410.55    585.489600
7412.17    684.245200
7413.80    906.502300
7415.42    696.739400
7417.04    591.933800
7418.67    575.718700
7420.29    640.972400
7421.91    729.884100
7423.54    732.116100
7425.16    763.823200
7426.79    849.328300
7428.41    743.233300
7430.03    717.600300
7431.66    715.083700
7433.28    752.911600
7434.91    723.232200
7436.53    806.313600
7438.15    868.508900
7439.78    765.271900
7441.40    623.317700
7443.03    692.916400
7444.65    799.018500
7446.27    673.948400
7447.90    762.055100
7449.52    823.927500
7451.15    872.440400
7452.77    878.144000
7454.40    715.890800
7456.02    688.062500
7457.64    768.726100
7459.27    679.856200
7460.89    710.305700
7462.52    694.618500
7464.14    615.109200
7465.76    811.644000
7467.39    759.149600
7469.01    774.174200
7470.64    979.542400
7472.26    866.278000
7473.88    773.484100
7475.51    712.953500
7477.13    757.961700
7478.76    573.899200
7480.38    613.341400
7482.01    702.788700
7483.63    722.500600
7485.25    678.864000
7486.88    668.490400
7488.50    667.007400
7490.12    602.707300
7491.75    656.555300
7493.37    722.670600
7495.00    800.517500
7496.62    802.455400
7498.24    789.866200
7499.87    821.772900
7501.49    909.217200
7503.12    765.411500
7504.74    688.054000
7506.36    636.525000
7507.99    624.196400
7509.61    712.061000
7511.24    763.083400
7512.86    789.049400
7514.48    756.237700
7516.11    733.054600
7517.73    751.132100
7519.36    794.577300
7520.98    929.452700
7522.60    884.122900
7524.23    830.631500
7525.85    777.955300
7527.48    809.166400
7529.10    705.680400
7530.73    677.658900
7532.35    693.401400
7533.97    650.533500
7535.60    630.691400
7537.22    635.920800
7538.85    668.009900
7540.47    626.161700
7542.09    609.090600
7543.72    581.836900
7545.34    534.845200
7546.97    639.792000
7548.59    687.964100
7550.21    712.127000
7551.84    691.645800
7553.46    723.700500
7555.09    740.246800
7556.71    734.016800
7558.33    638.727100
7559.96    642.697700
7561.58    651.051100
7563.21    667.669800
7564.83    748.471900
7566.45    821.526000
7568.08    836.159100
7569.70    814.829300
7571.33    741.262000
7572.95    736.621400
7574.57    984.671000
7576.20    1489.024000
7577.82    829.371500
7579.45    970.985700
7581.07    1276.566000
7582.69    1845.431000
7584.32    242.960700
7585.94    -7793.970000
7587.57     0.000000
7589.19     0.000000
7590.81     0.000000
7592.44     0.000000
7594.06     0.000000
7595.69     0.000000
7597.31     0.000000
7598.94     0.000000
7600.56     0.000000
7602.18     0.000000
