#Wavelength     Flux
#[Angstrom]   [Counts]
3923.59    -1125.298000
3925.22    -311.324000
3926.84    -1181.432000
3928.46    -964.374500
3930.09    -874.896900
3931.71    -385.611300
3933.34    -766.990500
3934.96    -541.101400
3936.58    -1004.262000
3938.21    -692.134300
3939.83    -243.180600
3941.46    -798.079100
3943.08    -716.825300
3944.70    -482.333500
3946.33    -834.139000
3947.95    -1280.704000
3949.58    -1116.439000
3951.20    -886.973000
3952.82    -904.805500
3954.45    -406.325600
3956.07    -491.215200
3957.70    -693.879500
3959.32    -1184.468000
3960.94    -1016.757000
3962.57    -766.442700
3964.19    -941.196500
3965.82    -469.066500
3967.44    -631.137900
3969.06    -317.626700
3970.69    -854.795800
3972.31    -286.403200
3973.94    -352.706200
3975.56    -596.544800
3977.18    -671.270600
3978.81    -491.337800
3980.43    -501.401300
3982.06    -618.248100
3983.68    -413.047500
3985.30    -460.742800
3986.93    -364.682500
3988.55    -397.448400
3990.18    -754.760900
3991.80    -343.396000
3993.43    -476.223000
3995.05    -466.167500
3996.67    -1007.213000
3998.30    -728.505700
3999.92    -820.352300
4001.55    -418.095600
4003.17    -406.327800
4004.79    -678.183100
4006.42    -523.932500
4008.04    -235.910400
4009.67    -738.934600
4011.29    -861.482600
4012.91    -895.723300
4014.54    -895.719900
4016.16    -418.315900
4017.79    -375.100900
4019.41    -449.186500
4021.03    -333.453000
4022.66    -447.058200
4024.28    -390.852700
4025.91    -293.225100
4027.53    -522.874500
4029.15    -442.581300
4030.78    -506.351800
4032.40    -638.531900
4034.03    -479.601500
4035.65    -431.983200
4037.27    -769.561600
4038.90    -513.560400
4040.52    -370.920600
4042.15    -753.399500
4043.77    -685.264000
4045.39    -353.031200
4047.02    -417.346300
4048.64    -784.501900
4050.27    -505.596900
4051.89    -447.037600
4053.51    -416.364800
4055.14    -513.073200
4056.76    -361.765900
4058.39    -124.004200
4060.01    -570.508500
4061.64    -389.142900
4063.26    -145.706000
4064.88    -359.523100
4066.51    -566.196700
4068.13    -612.485000
4069.76    -388.770100
4071.38    -276.619200
4073.00    -367.882000
4074.63    -413.772100
4076.25    -363.168900
4077.88    -228.289900
4079.50    -503.348000
4081.12    -577.610400
4082.75    -396.703600
4084.37    -364.771200
4086.00    -475.199800
4087.62    -535.202900
4089.24    -442.205600
4090.87    -364.643200
4092.49    -425.991300
4094.12    -379.389000
4095.74    -314.901900
4097.36    -388.721500
4098.99    -333.871900
4100.61    -345.939900
4102.24    -379.974100
4103.86    -375.074200
4105.48    -243.272700
4107.11    -251.020800
4108.73    -55.099380
4110.36    -277.493800
4111.98    -394.212700
4113.60    -403.299900
4115.23    -329.366700
4116.85    -189.730100
4118.48    -403.291400
4120.10    -470.807300
4121.73    -436.145100
4123.35    -452.184600
4124.97    -295.983900
4126.60    -381.881100
4128.22    -286.022800
4129.85    -273.212800
4131.47    -287.016000
4133.09    -371.147100
4134.72    -510.373500
4136.34    -486.086600
4137.97    -440.847200
4139.59    -324.752600
4141.21    -200.037800
4142.84    -319.719500
4144.46    -367.206900
4146.09    -397.241200
4147.71    -358.670600
4149.33    -248.413300
4150.96    -223.080800
4152.58    -142.628300
4154.21    -227.621200
4155.83    -142.481700
4157.45    -239.193200
4159.08    -395.878400
4160.70    -78.318430
4162.33    -192.488900
4163.95    -192.938000
4165.57    -100.680800
4167.20    -346.312500
4168.82    -381.584200
4170.45    -394.269100
4172.07    -156.435000
4173.69    -35.819140
4175.32    -523.041800
4176.94    -282.777900
4178.57    -421.904500
4180.19    -281.865700
4181.81    -124.623100
4183.44    -408.673300
4185.06    -206.882100
4186.69    -137.516300
4188.31    -171.291000
4189.94    -295.570700
4191.56    -359.464300
4193.18    -336.391500
4194.81    -295.184500
4196.43    -70.839520
4198.06    -180.400700
4199.68    -334.448500
4201.30    -326.988100
4202.93    -377.550300
4204.55    15.780160
4206.18    -115.949200
4207.80    -114.297400
4209.42    -134.412900
4211.05    -188.574000
4212.67    -545.543600
4214.30    -214.920500
4215.92    -325.833200
4217.54    -120.395100
4219.17    -294.189800
4220.79    -470.483000
4222.41    -343.694200
4224.04    -341.838400
4225.66    -269.788800
4227.29    -272.178100
4228.91    -46.986130
4230.54    -241.712300
4232.16    -33.801900
4233.78    -281.737400
4235.41    -93.850350
4237.03    -311.254900
4238.66    -280.908800
4240.28    -298.344300
4241.90    -245.795800
4243.53    -164.234100
4245.15    -130.289000
4246.78    -253.870100
4248.40    -136.462100
4250.02    -277.460200
4251.65    -298.218800
4253.27    -76.723750
4254.90    -185.548300
4256.52    -171.836900
4258.14    -219.215200
4259.77    -388.907400
4261.39    -319.391800
4263.02    -223.206700
4264.64    -425.178400
4266.26    -123.046900
4267.89    -163.561800
4269.51    -343.363900
4271.14    -145.227600
4272.76    -266.825300
4274.39    -322.485300
4276.01    -154.497500
4277.63    -376.474300
4279.26    -333.458200
4280.88    -326.011800
4282.51    -339.425900
4284.13    -144.815400
4285.75    -225.705200
4287.38    -152.093200
4289.00    -327.003000
4290.62    -376.266300
4292.25    -253.558200
4293.87    -160.142300
4295.50    -182.651300
4297.12    -188.828600
4298.74    -59.281210
4300.37    -216.442400
4301.99    -121.926100
4303.62    -41.434900
4305.24    -203.005100
4306.86    -117.667600
4308.49    -250.548100
4310.11    -370.257300
4311.74    -228.763300
4313.36    -222.240700
4314.99    43.671260
4316.61    -184.011500
4318.23    -146.317900
4319.86    -214.707400
4321.48    -261.859400
4323.11    -32.578680
4324.73    -39.465830
4326.35    -149.554200
4327.98    -45.067080
4329.60    -194.665100
4331.23    -102.527400
4332.85    -69.846320
4334.47    -191.879900
4336.10    -171.264100
4337.72    -132.024700
4339.35    -267.908600
4340.97    -266.793900
4342.59    -131.123000
4344.22    -259.391600
4345.84    -220.546700
4347.47    -284.072700
4349.09    -206.146300
4350.71    -236.230600
4352.34    -191.703600
4353.96    -241.103100
4355.59    -243.518200
4357.21    -211.543600
4358.84    -238.094400
4360.46    -316.884800
4362.08    -285.744000
4363.71    -165.796700
4365.33    -33.154080
4366.95    -81.803050
4368.58    -188.140500
4370.20    -150.160900
4371.83    -296.244100
4373.45    -329.923400
4375.07    -184.524000
4376.70    -284.996400
4378.32    -313.421500
4379.95    -67.671980
4381.57    -150.155600
4383.19    -199.222300
4384.82    -197.934900
4386.44    -16.263950
4388.07    -62.352370
4389.69    -191.990600
4391.31    -144.303300
4392.94    -214.894900
4394.56    -334.649700
4396.19    -257.500900
4397.81    -206.160900
4399.44    12.871630
4401.06    -43.906780
4402.68    -122.929000
4404.31    -251.641900
4405.93    32.527420
4407.56    54.792640
4409.18    -220.233300
4410.80    -146.776200
4412.43    -248.555800
4414.05    -61.011040
4415.68    -118.111800
4417.30    -187.861900
4418.92    -120.226900
4420.55    -190.955500
4422.17    -183.473400
4423.80    -143.147200
4425.42    -280.422500
4427.04    -103.471900
4428.67    -132.029500
4430.29    -56.903730
4431.92    36.294370
4433.54    -32.372460
4435.16    -64.444490
4436.79    -47.267270
4438.41    -41.258650
4440.04    -109.927800
4441.66    -262.734400
4443.28    47.966240
4444.91    -149.084000
4446.53    -253.851400
4448.16    -147.910000
4449.78    -136.306100
4451.40    -115.427200
4453.03    -152.947800
4454.65    -31.076830
4456.28    -135.832100
4457.90    -40.811490
4459.52    -25.135350
4461.15    101.475300
4462.77    71.191700
4464.40    139.997600
4466.02    119.505200
4467.65    176.184600
4469.27    -27.658320
4470.89    94.371100
4472.52    -77.605020
4474.14    -17.290640
4475.77    78.718800
4477.39    -31.276810
4479.01    -81.386630
4480.64    10.133120
4482.26    -24.125250
4483.89    -40.458930
4485.51     5.993965
4487.13    250.754700
4488.76    27.464140
4490.38    49.095910
4492.01    -100.118600
4493.63    136.052500
4495.25    85.035860
4496.88    -22.416330
4498.50    12.358610
4500.13    11.550770
4501.75    -44.231390
4503.38    -12.751020
4505.00    32.530810
4506.62    38.026420
4508.25    55.085020
4509.87    -22.488170
4511.49    -43.788470
4513.12    84.103820
4514.74    160.996000
4516.37    61.470250
4517.99    118.509800
4519.61    298.715800
4521.24    -72.376790
4522.86    45.156460
4524.49    205.715200
4526.11    43.119400
4527.73    81.405870
4529.36    187.616500
4530.98    -13.367630
4532.61    -40.219920
4534.23    167.558500
4535.85    160.275700
4537.48    85.941270
4539.10    66.302220
4540.73    132.812300
4542.35    101.087100
4543.98    118.467800
4545.60    235.385300
4547.22    87.001210
4548.85    377.602200
4550.47    459.685100
4552.10    270.036700
4553.72    12.184540
4555.34    128.415500
4556.97    369.385600
4558.59    448.169200
4560.22    241.536300
4561.84    105.375800
4563.46    143.911800
4565.09    176.751000
4566.71    118.330300
4568.34    68.682350
4569.96    125.906800
4571.58    157.289400
4573.21    135.737200
4574.83    81.151210
4576.46    232.041300
4578.08    255.323000
4579.70    206.769100
4581.33    231.340600
4582.95    127.147600
4584.58    85.587470
4586.20    141.752100
4587.82    98.509610
4589.45    111.890700
4591.07    106.077600
4592.70    165.715300
4594.32    112.105900
4595.94    121.844900
4597.57    194.654200
4599.19    98.474630
4600.82    104.448700
4602.44    236.185700
4604.06    191.307500
4605.69    117.175600
4607.31    178.834300
4608.94    53.225540
4610.56    168.782600
4612.19    244.312500
4613.81    238.216300
4615.43    168.496200
4617.06    215.548300
4618.68    211.937300
4620.31    64.759540
4621.93    96.641490
4623.55    187.675300
4625.18    71.709290
4626.80    17.345090
4628.43    118.784700
4630.05    46.496590
4631.67    374.422200
4633.30    360.198700
4634.92    128.110700
4636.55    361.281500
4638.17    239.094600
4639.79    198.633200
4641.42    242.753100
4643.04    83.843510
4644.67    43.751510
4646.29    77.957620
4647.91    102.811500
4649.54    220.583400
4651.16    181.253000
4652.79    257.266300
4654.41    75.139710
4656.03    107.538100
4657.66    210.131100
4659.28    223.847000
4660.91    202.919500
4662.53    215.131800
4664.15    220.728800
4665.78    199.968600
4667.40    206.149800
4669.03    315.536300
4670.65    232.909700
4672.27    143.765900
4673.90    48.226130
4675.52    202.551500
4677.15    226.369400
4678.77    176.026100
4680.40    263.742000
4682.02    165.510200
4683.64    243.670200
4685.27    283.162300
4686.89    75.624310
4688.52    112.792200
4690.14    194.807300
4691.76    320.784600
4693.39    245.685200
4695.01    267.242100
4696.64    251.699400
4698.26    246.338300
4699.88    278.995200
4701.51    325.297700
4703.13    254.994000
4704.76    249.282500
4706.38    350.734300
4708.00    245.740900
4709.63    100.427800
4711.25    126.958500
4712.88    84.112430
4714.50    164.452900
4716.12    163.260600
4717.75    186.892900
4719.37    172.799500
4721.00    60.455800
4722.62    125.107500
4724.24    153.452900
4725.87    253.568400
4727.49    270.162600
4729.12    63.497810
4730.74    287.469300
4732.36    228.737000
4733.99    62.604240
4735.61    68.250140
4737.24    242.871900
4738.86    375.307600
4740.48    254.942500
4742.11    114.524100
4743.73    92.527350
4745.36    148.348900
4746.98    175.823800
4748.60    201.307900
4750.23    252.555200
4751.85    345.059600
4753.48    231.892800
4755.10    186.162500
4756.73    124.411200
4758.35    242.936900
4759.97    309.266100
4761.60    332.183300
4763.22    101.923300
4764.85    233.312700
4766.47    258.513200
4768.09    270.532600
4769.72    187.280200
4771.34    245.860800
4772.97    285.970400
4774.59    249.915100
4776.21    84.115790
4777.84    241.161700
4779.46    224.755000
4781.09    220.928100
4782.71    210.445800
4784.33    180.281300
4785.96    264.089400
4787.58    238.839700
4789.21    229.944200
4790.83    188.529400
4792.45    104.438900
4794.08    211.136200
4795.70    328.876000
4797.33    173.053500
4798.95    321.026700
4800.57    295.803600
4802.20    147.282100
4803.82    255.822800
4805.45    131.775800
4807.07    169.281500
4808.69    226.897800
4810.32    220.379300
4811.94    264.321400
4813.57    239.675300
4815.19    238.415800
4816.81    481.255000
4818.44    219.810800
4820.06    378.684000
4821.69    146.528400
4823.31    88.709500
4824.94    209.975800
4826.56    190.021000
4828.18    228.763300
4829.81    261.505200
4831.43    112.403500
4833.06    221.017700
4834.68    38.316470
4836.30    234.252200
4837.93    278.781700
4839.55    246.857400
4841.18    212.260900
4842.80    232.775900
4844.42    255.698400
4846.05    28.498460
4847.67    230.248700
4849.30    256.834700
4850.92    246.754200
4852.54    373.859700
4854.17    232.557500
4855.79    291.326000
4857.42    180.673100
4859.04    204.042100
4860.66    270.267500
4862.29    179.368500
4863.91    212.400100
4865.54    68.102390
4867.16    202.361100
4868.78    323.858200
4870.41    292.605600
4872.03    407.201100
4873.66    315.400300
4875.28    206.479000
4876.90    158.814300
4878.53    181.437900
4880.15    143.878400
4881.78    245.283500
4883.40    153.948400
4885.02    150.619900
4886.65    348.813200
4888.27    107.653400
4889.90    119.492000
4891.52    193.868300
4893.15    256.455900
4894.77    306.463900
4896.39    291.569200
4898.02    238.336700
4899.64    255.211700
4901.27    289.222800
4902.89    283.120200
4904.51    215.785700
4906.14    259.236800
4907.76    316.613000
4909.39    148.756900
4911.01    119.775500
4912.63    233.379200
4914.26    201.179700
4915.88    154.295100
4917.51    348.995300
4919.13    293.710200
4920.75    301.291400
4922.38    306.180400
4924.00    214.616700
4925.63    194.439100
4927.25    217.712700
4928.87    240.384900
4930.50    216.731500
4932.12    218.372300
4933.75    199.611100
4935.37    118.934300
4936.99    116.449500
4938.62    203.750300
4940.24    283.964700
4941.87    246.194500
4943.49    152.118700
4945.11    112.711700
4946.74    99.117640
4948.36    254.582600
4949.99    258.396600
4951.61    230.418500
4953.23    242.083500
4954.86    98.527870
4956.48    195.334800
4958.11    198.304400
4959.73    237.859000
4961.35    397.214400
4962.98    233.237200
4964.60    220.557500
4966.23    202.446500
4967.85    241.890600
4969.48    340.984900
4971.10    262.675400
4972.72    270.618900
4974.35    253.894000
4975.97    213.149000
4977.60    390.971300
4979.22    445.766500
4980.84    320.070900
4982.47    324.471400
4984.09    330.638800
4985.72    364.979100
4987.34    305.633600
4988.96    171.318300
4990.59    227.493200
4992.21    365.680500
4993.84    338.217000
4995.46    324.584500
4997.08    280.329200
4998.71    218.838300
5000.33    233.576300
5001.96    268.422200
5003.58    306.392900
5005.20    208.090300
5006.83    172.188100
5008.45    292.843100
5010.08    282.044100
5011.70    212.432600
5013.32    294.655500
5014.95    436.367800
5016.57    335.946400
5018.20    257.015400
5019.82    198.781300
5021.44    319.124300
5023.07    305.828700
5024.69    394.030600
5026.32    460.057300
5027.94    301.377500
5029.56    168.006500
5031.19    248.352000
5032.81    310.174700
5034.44    294.075500
5036.06    242.091800
5037.69    400.756000
5039.31    444.627100
5040.93    415.179800
5042.56    367.765800
5044.18    352.515200
5045.81    243.000000
5047.43    156.431500
5049.05    311.340500
5050.68    288.205700
5052.30    201.869100
5053.93    212.296400
5055.55    317.998700
5057.17    200.061100
5058.80    236.830300
5060.42    360.181500
5062.05    191.645600
5063.67    125.323500
5065.29    165.192100
5066.92    325.328000
5068.54    351.752700
5070.17    377.544000
5071.79    353.330400
5073.41    308.858600
5075.04    314.232900
5076.66    286.584900
5078.29    337.249300
5079.91    356.503200
5081.53    280.764500
5083.16    310.597400
5084.78    353.661400
5086.41    349.708500
5088.03    343.164200
5089.65    389.823100
5091.28    379.978200
5092.90    260.325600
5094.53    206.876800
5096.15    268.458700
5097.77    262.635400
5099.40    171.007300
5101.02    171.191300
5102.65    252.362400
5104.27    298.347200
5105.90    316.856100
5107.52    357.648600
5109.14    311.181900
5110.77    164.916200
5112.39    311.264800
5114.02    365.018400
5115.64    338.841200
5117.26    317.321700
5118.89    318.428100
5120.51    183.762800
5122.14    196.013300
5123.76    213.198500
5125.38    279.935300
5127.01    234.332200
5128.63    147.785400
5130.26    163.070200
5131.88    242.085400
5133.50    226.795800
5135.13    197.664700
5136.75    266.825700
5138.38    363.254200
5140.00    341.520600
5141.62    348.135300
5143.25    389.608900
5144.87    371.483300
5146.50    456.046400
5148.12    348.223100
5149.74    214.979900
5151.37    211.008500
5152.99    264.136400
5154.62    253.157700
5156.24    237.060500
5157.86    297.564300
5159.49    346.521800
5161.11    296.630400
5162.74    170.268200
5164.36    99.608040
5165.98    137.684200
5167.61    302.712000
5169.23    249.544700
5170.86    282.923600
5172.48    268.770100
5174.10    200.132600
5175.73    143.515600
5177.35    271.475600
5178.98    193.964200
5180.60    67.407010
5182.23    249.841700
5183.85    216.616500
5185.47    242.581900
5187.10    248.659800
5188.72    295.455300
5190.35    305.102700
5191.97    346.156200
5193.59    214.587400
5195.22    210.250800
5196.84    283.515300
5198.47    177.310400
5200.09    103.723600
5201.71    233.866300
5203.34    155.126800
5204.96    256.141600
5206.59    157.812900
5208.21    179.798800
5209.83    196.741200
5211.46    298.781600
5213.08    319.464900
5214.71    187.512000
5216.33    200.211700
5217.95    252.394500
5219.58    120.574700
5221.20    191.625500
5222.83    234.676800
5224.45    251.391200
5226.07    301.725600
5227.70    237.487000
5229.32    232.938200
5230.95    252.879600
5232.57    222.785200
5234.19    146.039400
5235.82    284.883700
5237.44    179.275700
5239.07    201.836200
5240.69    240.431900
5242.31    210.811300
5243.94    268.656800
5245.56    126.220300
5247.19    167.318900
5248.81    231.056700
5250.44    168.531500
5252.06    90.009740
5253.68    101.898900
5255.31    91.870470
5256.93    103.630600
5258.56    137.451200
5260.18    112.911900
5261.80    63.205090
5263.43    44.573640
5265.05    186.919600
5266.68    181.790500
5268.30    115.342500
5269.92    74.249920
5271.55    175.326400
5273.17    168.749000
5274.80    144.124700
5276.42    115.510600
5278.04    74.622760
5279.67     8.069015
5281.29    186.456600
5282.91    243.974300
5284.54    208.094800
5286.16    172.125400
5287.79    158.547400
5289.41    214.909600
5291.04    178.945700
5292.66    59.511250
5294.28    183.605800
5295.91    52.342080
5297.53    75.761470
5299.16    46.292430
5300.78    255.743100
5302.40    244.436000
5304.03    219.339900
5305.65    192.433900
5307.28    276.233200
5308.90    273.178800
5310.52    187.598600
5312.15    168.342300
5313.77    29.812790
5315.40    230.031900
5317.02    326.559100
5318.64    294.119700
5320.27    259.914600
5321.89    145.301200
5323.52    225.942600
5325.14    311.475900
5326.76    358.225600
5328.39    341.119600
5330.01    441.525200
5331.64    341.932300
5333.26    195.685800
5334.89    56.317410
5336.51    205.742200
5338.13    203.892800
5339.76    211.902200
5341.38    335.791600
5343.01    285.680400
5344.63    363.508400
5346.25    217.312500
5347.88    250.990800
5349.50    245.527500
5351.12    133.007800
5352.75    175.104100
5354.37    147.677700
5356.00    161.660600
5357.62    185.859200
5359.24    226.747900
5360.87    246.556000
5362.49    244.452800
5364.12    292.392500
5365.74    385.810600
5367.36    316.931400
5368.99    269.699500
5370.61    317.695200
5372.24    203.083800
5373.86    283.839500
5375.49    279.192000
5377.11    248.643200
5378.73    318.464800
5380.36    390.995200
5381.98    359.552300
5383.61    402.832700
5385.23    348.738600
5386.85    264.540500
5388.48    341.339100
5390.10    302.600200
5391.73    287.277200
5393.35    249.922400
5394.97    402.455000
5396.60    273.023700
5398.22    402.644400
5399.85    341.715000
5401.47    368.261400
5403.09    307.214000
5404.72    286.153500
5406.34    195.945300
5407.97    409.795200
5409.59    187.301600
5411.21    287.440200
5412.84    451.587500
5414.46    250.911200
5416.09    290.901900
5417.71    217.501100
5419.34    252.117700
5420.96    236.253400
5422.58    220.589500
5424.21    386.933900
5425.83    214.185800
5427.45    315.540500
5429.08    288.814500
5430.70    246.251700
5432.33    318.364000
5433.95    342.459800
5435.57    364.541000
5437.20    467.730700
5438.82    384.076000
5440.45    475.324600
5442.07    280.938500
5443.69    375.060300
5445.32    420.740900
5446.94    522.232000
5448.57    395.267900
5450.19    313.777700
5451.81    235.385000
5453.44    378.495400
5455.06    312.155100
5456.69    272.484700
5458.31    351.062600
5459.94    423.433800
5461.56    392.860100
5463.18    320.914400
5464.81    391.917200
5466.43    386.761400
5468.06    363.285100
5469.68    352.227000
5471.30    484.579500
5472.93    393.415600
5474.55    402.539600
5476.18    361.940900
5477.80    384.259300
5479.42    369.919800
5481.05    308.068800
5482.67    314.704400
5484.30    402.124500
5485.92    249.255700
5487.54    233.143600
5489.17    426.262400
5490.79    378.948100
5492.42    253.192000
5494.04    337.452700
5495.66    352.867300
5497.29    355.790600
5498.91    396.162200
5500.54    352.877600
5502.16    385.095200
5503.78    338.090500
5505.41    316.778600
5507.03    362.405500
5508.66    436.424800
5510.28    455.613500
5511.90    370.770100
5513.53    413.256300
5515.15    306.092800
5516.78    432.273000
5518.40    381.860300
5520.02    433.974900
5521.65    423.090700
5523.27    375.723700
5524.90    383.234300
5526.52    413.284400
5528.15    370.994300
5529.77    427.775600
5531.39    347.770100
5533.02    301.285300
5534.64    351.964100
5536.27    355.016900
5537.89    282.763000
5539.51    361.189400
5541.14    316.469400
5542.76    308.999100
5544.39    512.355200
5546.01    379.375900
5547.63    341.050200
5549.26    355.376600
5550.88    363.758900
5552.51    323.657300
5554.13    339.530100
5555.75    462.343100
5557.38    404.110200
5559.00    403.987800
5560.63    376.722000
5562.25    430.989900
5563.88    384.258100
5565.50    388.257000
5567.12    356.343400
5568.75    424.095100
5570.37    190.669700
5571.99    466.941300
5573.62    649.337600
5575.24    -183.734000
5576.87    -684.259700
5578.49    124.633900
5580.11    922.629200
5581.74    965.032500
5583.36    556.965000
5584.99    114.590800
5586.61    772.982600
5588.23    764.968600
5589.86    1876.203000
5591.48    375.865200
5593.11    377.747900
5594.73    370.913700
5596.35    402.280600
5597.98    404.773600
5599.60    363.156600
5601.23    321.648700
5602.85    325.285700
5604.48    339.180800
5606.10    371.239300
5607.72    423.919800
5609.35    401.769500
5610.97    383.253700
5612.60    437.645100
5614.22    436.121500
5615.84    420.303100
5617.47    397.274800
5619.09    360.728900
5620.72    379.449700
5622.34    365.587600
5623.96    339.242600
5625.59    411.520600
5627.21    437.453800
5628.84    438.820600
5630.46    420.317700
5632.08    336.833000
5633.71    349.099000
5635.33    364.971800
5636.96    387.643500
5638.58    396.590000
5640.20    380.163100
5641.83    367.637400
5643.45    367.262200
5645.08    358.604400
5646.70    351.374400
5648.32    354.842900
5649.95    398.631300
5651.57    416.627900
5653.20    381.775500
5654.82    337.130200
5656.44    329.037500
5658.07    349.922800
5659.69    382.928500
5661.32    417.942400
5662.94    387.227600
5664.56    367.369600
5666.19    352.559500
5667.81    340.409600
5669.44    409.380200
5671.06    382.989400
5672.69    347.039600
5674.31    295.635600
5675.93    367.891800
5677.56    365.829300
5679.18    352.431300
5680.81    323.987400
5682.43    315.697300
5684.05    330.852200
5685.68    354.099200
5687.30    396.823000
5688.93    369.822100
5690.55    354.877500
5692.17    343.653600
5693.80    338.761400
5695.42    376.182500
5697.05    391.038200
5698.67    394.652000
5700.29    371.517800
5701.92    417.472600
5703.54    392.067900
5705.17    319.528500
5706.79    294.064500
5708.41    353.910600
5710.04    374.840400
5711.66    356.842300
5713.29    381.088300
5714.91    382.078500
5716.53    382.333300
5718.16    384.053700
5719.78    407.901700
5721.41    412.739400
5723.03    407.240500
5724.65    379.512600
5726.28    396.758300
5727.90    368.622600
5729.53    335.965500
5731.15    327.564900
5732.77    335.486000
5734.40    351.185400
5736.02    363.881000
5737.65    321.898000
5739.27    403.075000
5740.90    406.926000
5742.52    367.506200
5744.14    354.692400
5745.77    347.565600
5747.39    326.003800
5749.02    289.141000
5750.64    360.692400
5752.26    337.815200
5753.89    317.550500
5755.51    302.676800
5757.14    386.566900
5758.76    362.913800
5760.38    343.069800
5762.01    353.745400
5763.63    366.467000
5765.26    348.817000
5766.88    334.572400
5768.50    357.448300
5770.13    355.430300
5771.75    356.375300
5773.38    362.453400
5775.00    402.846900
5776.62    365.421500
5778.25    342.489400
5779.87    324.787600
5781.50    306.871900
5783.12    345.975100
5784.74    369.592700
5786.37    382.841200
5787.99    383.119100
5789.62    366.260300
5791.24    355.008700
5792.86    351.307200
5794.49    346.887700
5796.11    375.213300
5797.74    380.437700
5799.36    332.670500
5800.98    346.363600
5802.61    330.578300
5804.23    315.191500
5805.86    316.507000
5807.48    300.785200
5809.10    319.262900
5810.73    341.694900
5812.35    331.743500
5813.98    350.204900
5815.60    362.565300
5817.23    365.538900
5818.85    276.390900
5820.47    327.911700
5822.10    369.745700
5823.72    406.210400
5825.35    356.355700
5826.97    314.321100
5828.59    324.546600
5830.22    397.674000
5831.84    385.607900
5833.47    376.616800
5835.09    359.113100
5836.71    324.007900
5838.34    342.110200
5839.96    348.132400
5841.59    356.242000
5843.21    377.798300
5844.83    400.055800
5846.46    385.735900
5848.08    368.438000
5849.71    384.760500
5851.33    405.771900
5852.95    406.463400
5854.58    397.760100
5856.20    379.270300
5857.83    350.566900
5859.45    341.228700
5861.07    342.970000
5862.70    350.787700
5864.32    327.149300
5865.95    311.498200
5867.57    302.508600
5869.19    352.072600
5870.82    348.638100
5872.44    324.928100
5874.07    267.486200
5875.69    309.904800
5877.31    333.631000
5878.94    343.669700
5880.56    323.857300
5882.19    326.854500
5883.81    335.938500
5885.44    341.283800
5887.06    325.283800
5888.68    284.071700
5890.31    273.163600
5891.93    273.618800
5893.56    289.630600
5895.18    330.258100
5896.80    315.445600
5898.43    269.772400
5900.05    264.521300
5901.68    316.108100
5903.30    355.865000
5904.92    388.686000
5906.55    357.166600
5908.17    329.749500
5909.80    313.504500
5911.42    313.087500
5913.04    378.911300
5914.67    382.667900
5916.29    363.006600
5917.92    298.858000
5919.54    339.029800
5921.16    371.565300
5922.79    392.108600
5924.41    372.295800
5926.04    352.639100
5927.66    340.750800
5929.28    334.087000
5930.91    353.613800
5932.53    355.888000
5934.16    343.457900
5935.78    326.563700
5937.40    380.491100
5939.03    373.237900
5940.65    363.612200
5942.28    351.213300
5943.90    283.072500
5945.52    310.365900
5947.15    342.212800
5948.77    383.883600
5950.40    357.735700
5952.02    337.983400
5953.65    330.776300
5955.27    349.566900
5956.89    324.742800
5958.52    339.899100
5960.14    361.445400
5961.77    388.409100
5963.39    371.487500
5965.01    381.618700
5966.64    387.632600
5968.26    325.848000
5969.89    355.158700
5971.51    381.953900
5973.13    404.338100
5974.76    371.895300
5976.38    386.289200
5978.01    375.129800
5979.63    344.253800
5981.25    284.475400
5982.88    247.869900
5984.50    241.067700
5986.13    268.398700
5987.75    287.872800
5989.37    240.481800
5991.00    218.004900
5992.62    246.532700
5994.25    331.746100
5995.87    349.955300
5997.49    357.646400
5999.12    360.777000
6000.74    380.943700
6002.37    379.088000
6003.99    369.594500
6005.61    348.627700
6007.24    386.451700
6008.86    378.592300
6010.49    354.934800
6012.11    361.355900
6013.73    330.385800
6015.36    338.139700
6016.98    368.879900
6018.61    357.835400
6020.23    382.623000
6021.85    398.498900
6023.48    406.840100
6025.10    404.360100
6026.73    392.456800
6028.35    391.359000
6029.98    410.224200
6031.60    377.558700
6033.22    362.012300
6034.85    370.845100
6036.47    443.003000
6038.10    336.901300
6039.72    326.571700
6041.34    338.372500
6042.97    366.758400
6044.59    391.972500
6046.22    380.564600
6047.84    364.229700
6049.46    418.330700
6051.09    417.699800
6052.71    415.455100
6054.34    411.097400
6055.96    389.216500
6057.58    364.658000
6059.21    354.503800
6060.83    356.381100
6062.46    360.395100
6064.08    365.572100
6065.70    391.903600
6067.33    453.372800
6068.95    379.806600
6070.58    411.528900
6072.20    425.247200
6073.82    378.634700
6075.45    434.432300
6077.07    423.261800
6078.70    406.353500
6080.32    413.634700
6081.94    449.158500
6083.57    445.126500
6085.19    428.341000
6086.82    408.937000
6088.44    389.922100
6090.06    368.062600
6091.69    349.391400
6093.31    437.974300
6094.94    428.890500
6096.56    391.834700
6098.19    330.468800
6099.81    396.641800
6101.43    398.079200
6103.06    409.141300
6104.68    435.066500
6106.31    416.051900
6107.93    388.301500
6109.55    390.429900
6111.18    457.867500
6112.80    403.710200
6114.43    401.139500
6116.05    411.116900
6117.67    441.031600
6119.30    402.298300
6120.92    373.892600
6122.55    356.923200
6124.17    396.662800
6125.79    405.251300
6127.42    422.455800
6129.04    442.775800
6130.67    451.696300
6132.29    429.718800
6133.91    407.976200
6135.54    384.799900
6137.16    424.222000
6138.79    468.170200
6140.41    473.731000
6142.03    435.743900
6143.66    391.829300
6145.28    422.443800
6146.91    445.863200
6148.53    453.934900
6150.15    432.209000
6151.78    448.103100
6153.40    456.583400
6155.03    431.314600
6156.65    421.555500
6158.27    418.649000
6159.90    420.840700
6161.52    444.091000
6163.15    428.426600
6164.77    420.706800
6166.40    419.617500
6168.02    460.913300
6169.64    432.367200
6171.27    426.481300
6172.89    435.259400
6174.52    513.772900
6176.14    474.216400
6177.76    445.002000
6179.39    423.258800
6181.01    431.807800
6182.64    431.189700
6184.26    441.420000
6185.88    472.361100
6187.51    454.069800
6189.13    457.994600
6190.76    454.280100
6192.38    425.940100
6194.00    459.701200
6195.63    477.808000
6197.25    477.226100
6198.88    408.630200
6200.50    398.306600
6202.12    398.540800
6203.75    402.135300
6205.37    408.402500
6207.00    433.827600
6208.62    449.252400
6210.24    459.880600
6211.87    481.196500
6213.49    479.520600
6215.12    477.781700
6216.74    475.987100
6218.36    452.526200
6219.99    438.883400
6221.61    428.446800
6223.24    422.601400
6224.86    481.946000
6226.48    465.396300
6228.11    445.293000
6229.73    430.117600
6231.36    440.586000
6232.98    436.901500
6234.60    430.665600
6236.23    424.023300
6237.85    406.057400
6239.48    416.549800
6241.10    429.353500
6242.73    401.979600
6244.35    422.071700
6245.97    437.507200
6247.60    448.545600
6249.22    420.594900
6250.85    407.849400
6252.47    427.313100
6254.09    472.480900
6255.72    380.356800
6257.34    406.602800
6258.97    430.720600
6260.59    454.797200
6262.21    472.531700
6263.84    421.284100
6265.46    394.131000
6267.09    423.636200
6268.71    452.338300
6270.33    419.226600
6271.96    389.336200
6273.58    399.320300
6275.21    405.223900
6276.83    371.689100
6278.45    343.943800
6280.08    416.119900
6281.70    421.889500
6283.33    413.164800
6284.95    397.324400
6286.57    382.100000
6288.20    381.057100
6289.82    416.715500
6291.45    477.002100
6293.07    389.191700
6294.69    439.329700
6296.32    427.244600
6297.94    343.708400
6299.57    226.548600
6301.19    269.649400
6302.81    349.843300
6304.44    495.342000
6306.06    453.663500
6307.69    447.406300
6309.31    450.087800
6310.94    468.726400
6312.56    406.936600
6314.18    420.673900
6315.81    445.097700
6317.43    441.301200
6319.06    388.039900
6320.68    397.772500
6322.30    421.130200
6323.93    349.442400
6325.55    421.145300
6327.18    446.549900
6328.80    443.801100
6330.42    400.832400
6332.05    412.688400
6333.67    417.230700
6335.30    415.002200
6336.92    408.381400
6338.54    433.300000
6340.17    432.857400
6341.79    391.057700
6343.41    396.052500
6345.04    395.036900
6346.66    395.991300
6348.29    405.669200
6349.91    380.560800
6351.54    412.467300
6353.16    451.934900
6354.78    479.903900
6356.41    483.272500
6358.03    479.455600
6359.66    469.379500
6361.28    433.449700
6362.90    337.448900
6364.53    321.084600
6366.15    348.926400
6367.78    445.881700
6369.40    445.870800
6371.02    441.028700
6372.65    431.364000
6374.27    436.437100
6375.90    420.975100
6377.52    413.077300
6379.15    416.702300
6380.77    418.626200
6382.39    412.786900
6384.02    405.258700
6385.64    395.633300
6387.27    411.834400
6388.89    417.793000
6390.51    420.226900
6392.14    418.326800
6393.76    441.538700
6395.39    443.927400
6397.01    438.168300
6398.63    420.822100
6400.26    470.554300
6401.88    489.059400
6403.51    491.843000
6405.13    474.281100
6406.75    463.025300
6408.38    458.926100
6410.00    458.972500
6411.62    441.796400
6413.25    433.919900
6414.87    431.030200
6416.50    434.293400
6418.12    431.288800
6419.74    409.872300
6421.37    397.479300
6422.99    405.448300
6424.62    404.619800
6426.24    447.139600
6427.86    478.096200
6429.49    454.588400
6431.11    435.571400
6432.74    442.194900
6434.36    448.562600
6435.99    418.712100
6437.61    413.108900
6439.23    405.499100
6440.86    396.176500
6442.48    390.404000
6444.11    402.265000
6445.73    403.777100
6447.35    398.401200
6448.98    436.909200
6450.60    437.286400
6452.23    426.477100
6453.85    402.038900
6455.48    403.887800
6457.10    420.254300
6458.72    426.152000
6460.35    414.573800
6461.97    399.861500
6463.60    424.400200
6465.22    440.808800
6466.84    423.333600
6468.47    384.696000
6470.09    392.456400
6471.72    410.853700
6473.34    434.399600
6474.96    417.696700
6476.59    413.538500
6478.21    413.722500
6479.84    418.071100
6481.46    431.836700
6483.08    433.126700
6484.71    426.208400
6486.33    423.930900
6487.95    409.784300
6489.58    401.526700
6491.20    398.216600
6492.83    449.174000
6494.45    443.647800
6496.07    426.332200
6497.70    391.709800
6499.32    380.628900
6500.95    394.078800
6502.57    410.593200
6504.19    432.237100
6505.82    410.231300
6507.44    398.643700
6509.07    396.392300
6510.69    428.940200
6512.32    434.093300
6513.94    425.812300
6515.56    413.628000
6517.19    411.082000
6518.81    368.571200
6520.44    372.710100
6522.06    400.031500
6523.68    405.927800
6525.31    412.468800
6526.93    414.653300
6528.56    413.861800
6530.18    395.611900
6531.81    413.499600
6533.43    408.079200
6535.05    369.767700
6536.68    385.325600
6538.30    385.385100
6539.93    390.579700
6541.55    411.902100
6543.17    394.543900
6544.80    392.847400
6546.42    403.450200
6548.05    453.247600
6549.67    455.774400
6551.29    439.448200
6552.92    418.904400
6554.54    413.060900
6556.16    388.699500
6557.79    379.542800
6559.41    374.867200
6561.04    347.292800
6562.66    386.297800
6564.28    405.118900
6565.91    409.606800
6567.53    457.436900
6569.16    430.386400
6570.78    418.017300
6572.40    422.400100
6574.03    430.735000
6575.65    399.102800
6577.28    387.992400
6578.90    422.822600
6580.52    398.548900
6582.15    422.316500
6583.77    432.469800
6585.40    378.774900
6587.02    382.288900
6588.65    414.297500
6590.27    441.953400
6591.89    405.168100
6593.52    464.155900
6595.14    430.614700
6596.77    366.159700
6598.39    406.044800
6600.01    395.127900
6601.64    398.458200
6603.26    409.304100
6604.89    340.980700
6606.51    374.405000
6608.13    378.924600
6609.76    352.245600
6611.38    425.128800
6613.01    405.610700
6614.63    387.626600
6616.26    377.762100
6617.88    348.958600
6619.50    351.614500
6621.13    357.757900
6622.75    365.973900
6624.38    385.053300
6626.00    382.032500
6627.62    377.970900
6629.25    394.043800
6630.87    394.680100
6632.49    427.318700
6634.12    462.225200
6635.74    402.972000
6637.37    383.530400
6638.99    360.252000
6640.61    334.543000
6642.24    371.502500
6643.86    411.192700
6645.49    442.819400
6647.11    469.855700
6648.73    468.668300
6650.36    443.483100
6651.98    438.238200
6653.61    465.924000
6655.23    438.692900
6656.85    441.408200
6658.48    439.713000
6660.10    421.086600
6661.73    405.618800
6663.35    424.592100
6664.98    465.198700
6666.60    573.430900
6668.22    717.724400
6669.85    778.015400
6671.47    792.211200
6673.10    648.675000
6674.72    549.055600
6676.34    483.449300
6677.97    431.277100
6679.59    392.609700
6681.22    395.971400
6682.84    395.314800
6684.46    391.418900
6686.09    426.158000
6687.71    482.591100
6689.34    540.366000
6690.96    607.221800
6692.59    588.576300
6694.21    563.831400
6695.83    523.747100
6697.46    447.311100
6699.08    422.343700
6700.70    418.682300
6702.33    415.087400
6703.95    400.901000
6705.58    364.361900
6707.20    362.723000
6708.82    371.853900
6710.45    392.188400
6712.07    395.099700
6713.70    378.066700
6715.32    353.044300
6716.94    366.423500
6718.57    357.039600
6720.19    358.246800
6721.82    366.666400
6723.44    391.703500
6725.06    382.375700
6726.69    381.955900
6728.31    392.183100
6729.94    391.745200
6731.56    343.858900
6733.19    318.975500
6734.81    342.133900
6736.43    412.600400
6738.06    396.455400
6739.68    370.432600
6741.31    349.066700
6742.93    377.797500
6744.55    377.053200
6746.18    372.369200
6747.80    388.003100
6749.43    372.370200
6751.05    372.592500
6752.67    376.419200
6754.30    355.335700
6755.92    345.481100
6757.55    351.324500
6759.17    367.799700
6760.79    416.401700
6762.42    407.817800
6764.04    393.694300
6765.67    372.090900
6767.29    344.121500
6768.91    339.261900
6770.54    333.957200
6772.16    326.725100
6773.79    312.323200
6775.41    343.140600
6777.03    371.237100
6778.66    381.041200
6780.28    365.456100
6781.91    365.291300
6783.53    367.972100
6785.15    370.866900
6786.78    360.670900
6788.40    355.698100
6790.03    350.381300
6791.65    330.837000
6793.27    337.520500
6794.90    356.201000
6796.52    379.939900
6798.15    333.599600
6799.77    327.250700
6801.40    347.661400
6803.02    394.976200
6804.64    386.889500
6806.27    378.309900
6807.89    376.917200
6809.52    387.596800
6811.14    363.880900
6812.76    350.788000
6814.39    339.813600
6816.01    331.605400
6817.64    347.895500
6819.26    373.575400
6820.88    394.968400
6822.51    394.718100
6824.13    419.734600
6825.76    412.367400
6827.38    396.521800
6829.00    398.791100
6830.63    383.893100
6832.25    382.372800
6833.88    387.309100
6835.50    397.693500
6837.12    415.206900
6838.75    420.803900
6840.37    417.281100
6842.00    356.840000
6843.62    374.851800
6845.24    380.634500
6846.87    370.169100
6848.49    368.216600
6850.12    341.989700
6851.74    323.397100
6853.36    324.203100
6854.99    327.860700
6856.61    316.984000
6858.24    305.498700
6859.86    300.443200
6861.48    306.838000
6863.11    300.523300
6864.73    296.023500
6866.36    328.293900
6867.98    340.195300
6869.60    321.965800
6871.23    292.753500
6872.85    323.430600
6874.48    305.251700
6876.10    299.808400
6877.73    302.613100
6879.35    312.035600
6880.97    337.473300
6882.60    343.653700
6884.22    327.053300
6885.85    337.291600
6887.47    331.320800
6889.09    319.327700
6890.72    297.161200
6892.34    303.085300
6893.97    304.733100
6895.59    304.236300
6897.21    299.817300
6898.84    280.914500
6900.46    288.007600
6902.09    302.632000
6903.71    326.179700
6905.33    331.253500
6906.96    332.925400
6908.58    332.081800
6910.21    322.495800
6911.83    308.522100
6913.45    307.840300
6915.08    314.510500
6916.70    304.410900
6918.33    314.135000
6919.95    308.683700
6921.57    286.593000
6923.20    307.525800
6924.82    304.725300
6926.45    313.758900
6928.07    346.556400
6929.69    375.187100
6931.32    366.476800
6932.94    354.305500
6934.57    343.708600
6936.19    341.353100
6937.81    317.814500
6939.44    304.646600
6941.06    363.750700
6942.69    373.735200
6944.31    346.442800
6945.94    308.539600
6947.56    305.427900
6949.18    331.932900
6950.81    343.996900
6952.43    346.462800
6954.06    305.693800
6955.68    338.971600
6957.30    346.922800
6958.93    332.619800
6960.55    319.120500
6962.18    325.920200
6963.80    324.357300
6965.42    310.157300
6967.05    328.165200
6968.67    340.467700
6970.30    348.321400
6971.92    348.533100
6973.54    360.482200
6975.17    355.347900
6976.79    344.928800
6978.42    326.406800
6980.04    355.217800
6981.66    370.018800
6983.29    378.003100
6984.91    368.731300
6986.54    361.005200
6988.16    331.155300
6989.78    289.649700
6991.41    281.468700
6993.03    288.639500
6994.66    308.419200
6996.28    340.229200
6997.90    366.244500
6999.53    335.294900
7001.15    331.263000
7002.78    364.465800
7004.40    328.428500
7006.02    343.874700
7007.65    347.733500
7009.27    320.636800
7010.90    319.480500
7012.52    323.816800
7014.15    331.552400
7015.77    350.419700
7017.39    330.461900
7019.02    330.713000
7020.64    333.513000
7022.27    320.752900
7023.89    347.842500
7025.51    338.519600
7027.14    313.704200
7028.76    307.633700
7030.39    335.586000
7032.01    349.501600
7033.63    353.756000
7035.26    356.539100
7036.88    336.258700
7038.51    332.238500
7040.13    346.924300
7041.75    328.309700
7043.38    358.619300
7045.00    371.620500
7046.63    349.444400
7048.25    340.865700
7049.87    317.553200
7051.50    305.805500
7053.12    336.666300
7054.75    342.469000
7056.37    335.407900
7057.99    332.062000
7059.62    367.397900
7061.24    321.833100
7062.87    324.323500
7064.49    344.569300
7066.11    356.341900
7067.74    323.338800
7069.36    323.053200
7070.99    342.571500
7072.61    355.337000
7074.23    366.453600
7075.86    376.160300
7077.48    385.340800
7079.11    371.407800
7080.73    358.840500
7082.35    363.011200
7083.98    397.031600
7085.60    337.835300
7087.23    332.820100
7088.85    340.898300
7090.48    371.269000
7092.10    348.388500
7093.72    355.708400
7095.35    361.587300
7096.97    333.002100
7098.60    354.487500
7100.22    369.990400
7101.84    379.518900
7103.47    354.095500
7105.09    360.530500
7106.72    374.232300
7108.34    390.031600
7109.96    349.493800
7111.59    344.948400
7113.21    338.773700
7114.84    330.626500
7116.46    329.383200
7118.08    341.509000
7119.71    352.619500
7121.33    364.174600
7122.96    336.345100
7124.58    336.956400
7126.20    331.552800
7127.83    306.206000
7129.45    361.002000
7131.08    370.186200
7132.70    367.335000
7134.32    349.453200
7135.95    350.503100
7137.57    333.609100
7139.20    314.239700
7140.82    320.803100
7142.44    320.847000
7144.07    338.200900
7145.69    361.230500
7147.32    323.832200
7148.94    361.576800
7150.56    367.808800
7152.19    349.619700
7153.81    349.271800
7155.44    334.949500
7157.06    330.392800
7158.69    339.395800
7160.31    379.227000
7161.93    381.759000
7163.56    371.783100
7165.18    339.641000
7166.81    339.670800
7168.43    320.490800
7170.05    300.866100
7171.68    289.495700
7173.30    306.347300
7174.93    284.830800
7176.55    256.629600
7178.17    253.927800
7179.80    282.501000
7181.42    297.468400
7183.05    305.812300
7184.67    301.678900
7186.29    297.933700
7187.92    290.686000
7189.54    280.293400
7191.17    309.832900
7192.79    297.450000
7194.41    289.609100
7196.04    286.122700
7197.66    286.244300
7199.29    291.393900
7200.91    297.415100
7202.53    306.218500
7204.16    312.620500
7205.78    316.324100
7207.41    312.563500
7209.03    286.929000
7210.65    285.469500
7212.28    281.332000
7213.90    283.249000
7215.53    322.414400
7217.15    318.931200
7218.77    312.626100
7220.40    306.305500
7222.02    318.375100
7223.65    314.788200
7225.27    313.208300
7226.90    311.453900
7228.52    279.972000
7230.14    277.155400
7231.77    272.366600
7233.39    264.788800
7235.02    240.506800
7236.64    247.736500
7238.26    258.942900
7239.89    277.171000
7241.51    253.905600
7243.14    251.777000
7244.76    256.311300
7246.38    274.345300
7248.01    258.247600
7249.63    266.806100
7251.26    280.347800
7252.88    296.587800
7254.50    281.153300
7256.13    282.160900
7257.75    286.431400
7259.38    273.554000
7261.00    269.211900
7262.62    279.575900
7264.25    296.801600
7265.87    279.373400
7267.50    272.342200
7269.12    285.235800
7270.74    317.196700
7272.37    285.779900
7273.99    249.941300
7275.62    239.071000
7277.24    264.530700
7278.86    281.496900
7280.49    267.424400
7282.11    263.549700
7283.74    290.462900
7285.36    299.203700
7286.98    314.474500
7288.61    326.387400
7290.23    322.620700
7291.86    280.560600
7293.48    271.747600
7295.10    273.630800
7296.73    285.243600
7298.35    286.153700
7299.98    284.061300
7301.60    279.088600
7303.23    262.536700
7304.85    274.280600
7306.47    273.898700
7308.10    264.135600
7309.72    263.777600
7311.35    277.195500
7312.97    280.753200
7314.59    272.413000
7316.22    291.411100
7317.84    298.188300
7319.47    304.039100
7321.09    311.610200
7322.71    281.865600
7324.34    274.932700
7325.96    278.899000
7327.59    310.543300
7329.21    290.136900
7330.83    278.567500
7332.46    270.769700
7334.08    274.981000
7335.71    289.338100
7337.33    290.898400
7338.95    286.525400
7340.58    280.940400
7342.20    305.655600
7343.83    294.435900
7345.45    257.409300
7347.07    271.111800
7348.70    299.274700
7350.32    313.364800
7351.95    312.639900
7353.57    301.597900
7355.19    290.991700
7356.82    291.135000
7358.44    312.086000
7360.07    317.157800
7361.69    335.926600
7363.31    348.254700
7364.94    338.567100
7366.56    344.094700
7368.19    342.853900
7369.81    336.650500
7371.44    315.337200
7373.06    322.992800
7374.68    303.569100
7376.31    281.595600
7377.93    350.777600
7379.56    334.582900
7381.18    312.457000
7382.80    286.414300
7384.43    326.240100
7386.05    326.261100
7387.68    319.819000
7389.30    306.515200
7390.92    298.172600
7392.55    295.426100
7394.17    293.640400
7395.80    293.805200
7397.42    310.148800
7399.04    298.795900
7400.67    294.237500
7402.29    315.733000
7403.92    331.256500
7405.54    325.390000
7407.16    310.914800
7408.79    277.724400
7410.41    326.251100
7412.04    336.200800
7413.66    331.076100
7415.28    309.628100
7416.91    330.370600
7418.53    317.629400
7420.16    286.857000
7421.78    290.366500
7423.40    319.776000
7425.03    321.466500
7426.65    299.065900
7428.28    308.038300
7429.90    286.658700
7431.52    281.926000
7433.15    302.655100
7434.77    306.308700
7436.40    295.592300
7438.02    296.256400
7439.65    327.328200
7441.27    273.483800
7442.89    274.190500
7444.52    287.225600
7446.14    314.737500
7447.77    316.043800
7449.39    325.235600
7451.01    333.615000
7452.64    321.395700
7454.26    345.006700
7455.89    337.167600
7457.51    315.339300
7459.13    322.894400
7460.76    302.860100
7462.38    290.596600
7464.01    283.125500
7465.63    312.931600
7467.25    295.688700
7468.88    292.779100
7470.50    308.356000
7472.12    293.511300
7473.75    293.492600
7475.37    295.177700
7477.00    299.609700
7478.62    304.261800
7480.24    300.907500
7481.87    299.924000
7483.49    312.469600
7485.12    355.293100
7486.74    345.846500
7488.37    322.114900
7489.99    295.806100
7491.61    305.388600
7493.24    307.205800
7494.86    306.462200
7496.49    318.841400
7498.11    320.581800
7499.73    319.213200
7501.36    315.139700
7502.98    299.914500
7504.61    308.981000
7506.23    307.178500
7507.85    292.811400
7509.48    281.905200
7511.10    301.610200
7512.73    309.913900
7514.35    296.799800
7515.98    326.214100
7517.60    339.754200
7519.22    343.681200
7520.85    326.297300
7522.47    332.807300
7524.10    340.554700
7525.72    342.926600
7527.34    316.894600
7528.97    299.534000
7530.59    295.860900
7532.22    295.824900
7533.84    286.427600
7535.46    299.285900
7537.09    301.270900
7538.71    296.271000
7540.34    290.016400
7541.96    289.695500
7543.58    296.420800
7545.21    310.790600
7546.83    305.680300
7548.45    312.885900
7550.08    316.109600
7551.70    313.725000
7553.33    329.740000
7554.95    324.296300
7556.57    324.417900
7558.20    345.784000
7559.82    646.548100
7561.45    636.914200
7563.07    717.285300
7564.70    1464.906000
7566.32     0.000000
7567.94     0.000000
7569.57     0.000000
7571.19     0.000000
7572.82     0.000000
7574.44     0.000000
7576.06     0.000000
7577.69     0.000000
7579.31     0.000000
7580.94     0.000000
