#Wavelength     Flux
#[Angstrom]   [Counts]
3932.25    339.588900
3933.89    536.988900
3935.52    388.737400
3937.16    434.496400
3938.79    552.689100
3940.42    573.583400
3942.06    608.898600
3943.69    489.678100
3945.32    437.978200
3946.96    610.251300
3948.59    641.044600
3950.23    577.632400
3951.86    595.865500
3953.49    637.716600
3955.13    501.656600
3956.76    377.460700
3958.39    509.865600
3960.03    651.373000
3961.66    668.375900
3963.30    645.505000
3964.93    529.523600
3966.56    671.105700
3968.20    641.936900
3969.83    545.966400
3971.47    601.922800
3973.10    751.958400
3974.73    685.581100
3976.37    670.602800
3978.00    677.589100
3979.64    761.067400
3981.27    903.435400
3982.90    755.586200
3984.54    694.861600
3986.17    647.238800
3987.80    534.535600
3989.44    607.729600
3991.07    490.513700
3992.71    453.250700
3994.34    440.311300
3995.97    566.230500
3997.61    509.301600
3999.24    532.834400
4000.88    769.561600
4002.51    741.512900
4004.14    546.754000
4005.78    547.635400
4007.41    668.418300
4009.04    732.452100
4010.68    814.641700
4012.31    723.923800
4013.95    585.946000
4015.58    569.905200
4017.21    663.691700
4018.85    528.154200
4020.48    469.734800
4022.11    443.561900
4023.75    423.430200
4025.38    355.450600
4027.02    236.084800
4028.65    275.168900
4030.28    293.212400
4031.92    393.281300
4033.55    356.860800
4035.19    315.511200
4036.82    395.133800
4038.45    453.484100
4040.09    342.382600
4041.72    316.806300
4043.36    392.180600
4044.99    405.647000
4046.62    452.300000
4048.26    500.937600
4049.89    426.544900
4051.52    458.178000
4053.16    372.503400
4054.79    445.567100
4056.43    470.114000
4058.06    412.084000
4059.69    435.436200
4061.33    446.527100
4062.96    436.898000
4064.59    418.190100
4066.23    551.401800
4067.86    591.719400
4069.50    401.264700
4071.13    480.837500
4072.76    582.277000
4074.40    501.281600
4076.03    584.504900
4077.67    448.054500
4079.30    566.793000
4080.93    614.813800
4082.57    577.537500
4084.20    647.166600
4085.84    515.740900
4087.47    397.361500
4089.10    428.522800
4090.74    476.350400
4092.37    573.511400
4094.01    530.283400
4095.64    604.719900
4097.27    658.118900
4098.91    592.672400
4100.54    687.674300
4102.17    734.497300
4103.81    633.226100
4105.44    657.717800
4107.07    599.060900
4108.71    759.078400
4110.34    742.547500
4111.98    710.584900
4113.61    803.516700
4115.24    817.203600
4116.88    750.998000
4118.51    817.145500
4120.15    906.122300
4121.78    876.932300
4123.41    873.271500
4125.05    835.405500
4126.68    852.717100
4128.31    761.148100
4129.95    676.089200
4131.58    535.084000
4133.22    491.357900
4134.85    515.263300
4136.48    512.257700
4138.12    403.476100
4139.75    282.350500
4141.39    284.577000
4143.02    159.937000
4144.65    244.968200
4146.29    396.966100
4147.92    477.529700
4149.56    496.295400
4151.19    518.402900
4152.82    572.333500
4154.46    659.301900
4156.09    858.646900
4157.73    774.083300
4159.36    764.553900
4160.99    768.930400
4162.63    713.453400
4164.26    758.043900
4165.89    831.361100
4167.53    785.004000
4169.16    754.835900
4170.80    647.114900
4172.43    635.314600
4174.06    619.109100
4175.70    415.432000
4177.33    388.492400
4178.97    417.565100
4180.60    391.792800
4182.23    491.395400
4183.87    428.451700
4185.50    547.800200
4187.13    817.641900
4188.77    791.128900
4190.40    889.080600
4192.04    1005.778000
4193.67    1055.948000
4195.30    1038.989000
4196.94    970.983800
4198.57    925.030300
4200.20    1026.841000
4201.84    1172.938000
4203.47    1101.045000
4205.11    969.840600
4206.74    1087.996000
4208.37    1127.546000
4210.01    1069.336000
4211.64    1136.422000
4213.27    1237.853000
4214.91    1195.570000
4216.54    1113.287000
4218.18    1117.633000
4219.81    1148.081000
4221.44    1229.222000
4223.08    1281.619000
4224.71    1261.438000
4226.35    1181.005000
4227.98    1266.844000
4229.61    1076.088000
4231.25    1227.023000
4232.88    1368.945000
4234.52    1264.313000
4236.15    1194.927000
4237.78    1178.800000
4239.42    1289.474000
4241.05    1255.334000
4242.69    1176.189000
4244.32    1152.989000
4245.95    1092.466000
4247.59    1228.836000
4249.22    1178.596000
4250.85    1128.196000
4252.49    1042.501000
4254.12    1286.835000
4255.76    1274.833000
4257.39    1081.953000
4259.02    1188.553000
4260.66    1150.902000
4262.29    1178.837000
4263.93    1175.119000
4265.56    1096.555000
4267.19    1241.009000
4268.83    1280.672000
4270.46    1165.893000
4272.09    1095.680000
4273.73    1133.698000
4275.36    1181.801000
4277.00    1100.237000
4278.63    1015.295000
4280.26    1086.718000
4281.90    1113.665000
4283.53    1159.483000
4285.16    1162.782000
4286.80    1211.204000
4288.43    1210.435000
4290.07    1187.635000
4291.70    1143.717000
4293.33    1161.755000
4294.97    1108.847000
4296.60    1160.857000
4298.24    1181.714000
4299.87    1275.545000
4301.50    1365.090000
4303.14    1314.850000
4304.77    1367.141000
4306.40    1371.256000
4308.04    1428.879000
4309.67    1269.125000
4311.31    1276.168000
4312.94    1253.524000
4314.57    1198.576000
4316.21    1070.384000
4317.84    949.520200
4319.48    1071.846000
4321.11    1128.184000
4322.74    1151.191000
4324.38    1156.085000
4326.01    1247.455000
4327.65    1207.309000
4329.28    1308.961000
4330.91    1385.870000
4332.55    1315.478000
4334.18    1312.516000
4335.81    1287.997000
4337.45    1224.628000
4339.08    1190.882000
4340.72    1135.071000
4342.35    1246.366000
4343.98    1177.813000
4345.62    1157.638000
4347.25    1266.441000
4348.89    1205.293000
4350.52    1186.649000
4352.15    1201.270000
4353.79    1185.758000
4355.42    1203.940000
4357.05    1279.878000
4358.69    1292.357000
4360.32    1199.220000
4361.96    1187.957000
4363.59    1128.051000
4365.22    1041.832000
4366.86    1134.181000
4368.49    1105.155000
4370.12    1110.192000
4371.76    1179.517000
4373.39    1008.944000
4375.03    1109.596000
4376.66    1081.015000
4378.29    1220.561000
4379.93    1227.935000
4381.56    1087.843000
4383.20    1262.937000
4384.83    1270.637000
4386.46    1260.769000
4388.10    1189.814000
4389.73    1216.732000
4391.36    1155.345000
4393.00    1060.207000
4394.63    982.978200
4396.27    1141.538000
4397.90    1098.671000
4399.53    1009.858000
4401.17    1125.410000
4402.80    1195.804000
4404.44    1277.295000
4406.07    1157.267000
4407.70    1157.188000
4409.34    1172.536000
4410.97    1210.040000
4412.60    1209.778000
4414.24    1131.333000
4415.87    1128.766000
4417.51    1078.369000
4419.14    1156.149000
4420.77    1237.980000
4422.41    1125.546000
4424.04    1097.369000
4425.68    1193.932000
4427.31    1206.192000
4428.94    1273.327000
4430.58    1325.387000
4432.21    1275.292000
4433.85    1273.364000
4435.48    1142.219000
4437.11    1273.435000
4438.75    1311.040000
4440.38    1279.967000
4442.02    1254.128000
4443.65    1249.587000
4445.28    1200.595000
4446.92    1233.630000
4448.55    1158.240000
4450.18    1226.875000
4451.82    1137.372000
4453.45    1108.960000
4455.09    1230.548000
4456.72    1201.144000
4458.35    1232.764000
4459.99    1294.805000
4461.62    1267.659000
4463.25    1391.861000
4464.89    1329.261000
4466.52    1362.057000
4468.16    1460.300000
4469.79    1437.594000
4471.42    1334.491000
4473.06    1257.977000
4474.69    1358.895000
4476.32    1372.724000
4477.96    1250.222000
4479.59    1219.731000
4481.23    1234.584000
4482.86    1333.851000
4484.49    1293.659000
4486.13    1262.318000
4487.76    1361.849000
4489.40    1303.164000
4491.03    1372.920000
4492.66    1373.343000
4494.30    1311.408000
4495.93    1284.942000
4497.56    1301.716000
4499.20    1294.891000
4500.83    1243.809000
4502.47    1253.011000
4504.10    1161.836000
4505.73    1338.021000
4507.37    1300.663000
4509.00    1271.459000
4510.64    1283.340000
4512.27    1198.090000
4513.90    1242.468000
4515.54    1219.128000
4517.17    1111.676000
4518.81    1110.531000
4520.44    1147.975000
4522.07    1242.392000
4523.71    1179.271000
4525.34    1082.311000
4526.98    958.740100
4528.61    979.104300
4530.24    983.673700
4531.88    866.809400
4533.51    825.165500
4535.14    870.126300
4536.78    1012.042000
4538.41    1111.399000
4540.05    1129.532000
4541.68    1165.998000
4543.31    1251.088000
4544.95    1454.501000
4546.58    1417.547000
4548.22    1433.720000
4549.85    1517.117000
4551.48    1554.631000
4553.12    1597.700000
4554.75    1427.725000
4556.38    1322.668000
4558.02    1354.493000
4559.65    1448.582000
4561.29    1538.157000
4562.92    1485.686000
4564.55    1654.527000
4566.19    1517.058000
4567.82    1373.464000
4569.45    1307.740000
4571.09    1363.479000
4572.72    1465.805000
4574.36    1477.735000
4575.99    1449.482000
4577.62    1506.782000
4579.26    1582.647000
4580.89    1534.065000
4582.52    1412.243000
4584.16    1321.397000
4585.79    1469.276000
4587.43    1587.185000
4589.06    1591.530000
4590.69    1591.807000
4592.33    1701.063000
4593.96    1696.473000
4595.60    1648.128000
4597.23    1601.028000
4598.86    1642.595000
4600.50    1585.976000
4602.13    1402.530000
4603.77    1365.443000
4605.40    1369.396000
4607.03    1440.447000
4608.67    1391.596000
4610.30    1279.846000
4611.94    1381.412000
4613.57    1242.606000
4615.20    1285.285000
4616.84    1332.216000
4618.47    1204.468000
4620.10    1280.995000
4621.74    1275.089000
4623.37    1315.002000
4625.01    1470.915000
4626.64    1499.951000
4628.27    1475.439000
4629.91    1391.937000
4631.54    1563.283000
4633.18    1547.661000
4634.81    1410.811000
4636.44    1416.491000
4638.08    1425.922000
4639.71    1315.603000
4641.34    1421.714000
4642.98    1556.387000
4644.61    1542.996000
4646.25    1558.463000
4647.88    1580.561000
4649.51    1499.730000
4651.15    1584.641000
4652.78    1611.702000
4654.41    1609.719000
4656.05    1556.903000
4657.68    1513.251000
4659.32    1520.357000
4660.95    1447.425000
4662.58    1549.202000
4664.22    1587.369000
4665.85    1508.934000
4667.49    1531.185000
4669.12    1504.255000
4670.75    1708.318000
4672.39    1773.769000
4674.02    1613.005000
4675.65    1537.790000
4677.29    1524.038000
4678.92    1660.990000
4680.56    1729.168000
4682.19    1688.805000
4683.82    1702.395000
4685.46    1782.683000
4687.09    1698.297000
4688.73    1605.227000
4690.36    1556.991000
4691.99    1515.102000
4693.63    1548.261000
4695.26    1673.220000
4696.90    1599.653000
4698.53    1519.796000
4700.16    1552.024000
4701.80    1557.107000
4703.43    1583.608000
4705.06    1613.217000
4706.70    1727.818000
4708.33    1648.723000
4709.97    1512.345000
4711.60    1695.427000
4713.23    1673.106000
4714.87    1700.107000
4716.50    1751.336000
4718.14    1730.509000
4719.77    1679.269000
4721.40    1665.086000
4723.04    1683.933000
4724.67    1831.326000
4726.30    1836.446000
4727.94    1714.317000
4729.57    1683.660000
4731.21    1653.792000
4732.84    1659.730000
4734.47    1748.065000
4736.11    1712.115000
4737.74    1726.803000
4739.38    1737.496000
4741.01    1790.244000
4742.64    1806.536000
4744.28    1822.233000
4745.91    1906.616000
4747.54    1884.378000
4749.18    1956.289000
4750.81    1761.199000
4752.45    1599.413000
4754.08    1707.559000
4755.71    1804.202000
4757.35    1834.039000
4758.98    1743.927000
4760.61    1763.287000
4762.25    1705.165000
4763.88    1738.993000
4765.52    1697.633000
4767.15    1598.252000
4768.78    1594.392000
4770.42    1606.916000
4772.05    1545.247000
4773.69    1605.732000
4775.32    1711.804000
4776.95    1679.369000
4778.59    1731.986000
4780.22    1760.927000
4781.85    1817.088000
4783.49    1770.490000
4785.12    1825.832000
4786.76    1735.632000
4788.39    1713.267000
4790.02    1710.645000
4791.66    1707.987000
4793.29    1795.225000
4794.93    1694.516000
4796.56    1792.615000
4798.19    1825.063000
4799.83    1808.334000
4801.46    1858.794000
4803.10    1705.334000
4804.73    1739.125000
4806.36    1853.099000
4808.00    1858.104000
4809.63    1881.490000
4811.26    1985.264000
4812.90    1865.815000
4814.53    1801.127000
4816.17    1760.973000
4817.80    1882.722000
4819.43    1827.815000
4821.07    1891.130000
4822.70    1788.330000
4824.34    1742.991000
4825.97    1869.353000
4827.60    1884.985000
4829.24    1758.365000
4830.87    1828.186000
4832.50    1841.011000
4834.14    1844.731000
4835.77    1871.971000
4837.41    1772.216000
4839.04    1607.470000
4840.67    1637.948000
4842.31    1753.361000
4843.94    1841.821000
4845.57    1821.242000
4847.21    1877.244000
4848.84    1766.361000
4850.48    1814.176000
4852.11    1955.506000
4853.74    1932.732000
4855.38    1911.121000
4857.01    1868.986000
4858.65    1912.690000
4860.28    1874.350000
4861.91    2054.300000
4863.55    2003.994000
4865.18    1922.332000
4866.81    1907.078000
4868.45    1979.851000
4870.08    1955.670000
4871.72    1880.614000
4873.35    1915.826000
4874.98    1955.100000
4876.62    1960.283000
4878.25    1899.410000
4879.89    1811.833000
4881.52    1769.633000
4883.15    1792.991000
4884.79    1759.286000
4886.42    1724.939000
4888.06    1865.972000
4889.69    1740.105000
4891.32    1705.961000
4892.96    1820.981000
4894.59    1720.571000
4896.23    1796.470000
4897.86    1816.952000
4899.49    1667.364000
4901.13    1706.847000
4902.76    1818.228000
4904.39    1847.504000
4906.03    1910.972000
4907.66    1833.513000
4909.30    1831.771000
4910.93    1733.227000
4912.56    1720.962000
4914.20    1674.778000
4915.83    1665.969000
4917.46    1693.168000
4919.10    1756.032000
4920.73    1755.687000
4922.37    1696.068000
4924.00    1805.613000
4925.63    1786.722000
4927.27    1822.069000
4928.90    1776.291000
4930.53    1682.253000
4932.17    1641.047000
4933.80    1747.989000
4935.44    1749.436000
4937.07    1764.823000
4938.70    1741.052000
4940.34    1850.829000
4941.97    1673.286000
4943.61    1736.865000
4945.24    1731.679000
4946.87    1696.071000
4948.51    1686.816000
4950.14    1825.701000
4951.77    1786.792000
4953.41    1686.168000
4955.04    1670.613000
4956.68    1740.612000
4958.31    1814.083000
4959.94    1735.396000
4961.58    1858.948000
4963.21    1819.256000
4964.85    1758.189000
4966.48    1810.556000
4968.11    1772.736000
4969.75    1762.397000
4971.38    1960.895000
4973.02    1857.763000
4974.65    1798.531000
4976.28    1940.301000
4977.92    1944.075000
4979.55    1929.858000
4981.19    1824.304000
4982.82    1682.234000
4984.45    1895.632000
4986.09    1901.907000
4987.72    1784.598000
4989.35    1704.560000
4990.99    1696.918000
4992.62    1928.964000
4994.26    1769.051000
4995.89    1778.601000
4997.52    1894.166000
4999.16    2006.640000
5000.79    1829.281000
5002.43    1867.477000
5004.06    2000.980000
5005.69    1819.772000
5007.33    1845.198000
5008.96    1793.157000
5010.59    1816.603000
5012.23    1702.711000
5013.86    1772.633000
5015.50    1759.114000
5017.13    1760.395000
5018.76    1745.509000
5020.40    1711.315000
5022.03    1753.540000
5023.66    1786.506000
5025.30    1895.208000
5026.93    1841.343000
5028.57    1797.332000
5030.20    1825.583000
5031.83    1924.272000
5033.47    1811.610000
5035.10    1793.398000
5036.73    1846.338000
5038.37    1622.842000
5040.00    1724.371000
5041.64    1826.334000
5043.27    1800.807000
5044.90    1793.911000
5046.54    1855.707000
5048.17    1818.868000
5049.81    1769.050000
5051.44    1891.495000
5053.07    1916.066000
5054.71    1882.075000
5056.34    1917.744000
5057.98    1891.357000
5059.61    1913.022000
5061.24    1951.521000
5062.88    1871.440000
5064.51    1911.574000
5066.15    1915.486000
5067.78    1830.741000
5069.41    1951.375000
5071.05    1903.931000
5072.68    1950.201000
5074.31    1898.418000
5075.95    1776.931000
5077.58    1793.826000
5079.22    1883.163000
5080.85    1890.748000
5082.48    1880.575000
5084.12    1715.789000
5085.75    1804.792000
5087.39    1962.529000
5089.02    1893.088000
5090.65    1798.399000
5092.29    1805.301000
5093.92    1837.500000
5095.55    1774.355000
5097.19    1714.832000
5098.82    1790.425000
5100.46    1764.416000
5102.09    1873.431000
5103.72    1796.601000
5105.36    1697.476000
5106.99    1717.836000
5108.62    1722.442000
5110.26    1713.184000
5111.89    1806.142000
5113.53    1657.610000
5115.16    1528.769000
5116.79    1585.082000
5118.43    1574.004000
5120.06    1600.003000
5121.70    1515.434000
5123.33    1599.394000
5124.96    1583.070000
5126.60    1645.375000
5128.23    1658.174000
5129.86    1674.728000
5131.50    1714.569000
5133.13    1711.176000
5134.77    1783.686000
5136.40    1748.494000
5138.03    1678.501000
5139.67    1689.082000
5141.30    1799.456000
5142.94    1726.462000
5144.57    1711.659000
5146.20    1652.569000
5147.84    1807.535000
5149.47    1852.049000
5151.10    1814.130000
5152.74    1851.744000
5154.37    1838.772000
5156.01    1838.297000
5157.64    1874.406000
5159.27    1889.213000
5160.91    1884.431000
5162.54    1842.834000
5164.18    1885.355000
5165.81    1797.791000
5167.44    1888.056000
5169.08    1925.678000
5170.71    1794.576000
5172.35    1782.780000
5173.98    1737.281000
5175.61    1716.218000
5177.25    1805.374000
5178.88    1741.145000
5180.51    1697.249000
5182.15    1709.210000
5183.78    1730.109000
5185.42    1710.564000
5187.05    1694.216000
5188.68    1798.524000
5190.32    1822.781000
5191.95    1784.842000
5193.59    1839.886000
5195.22    1798.829000
5196.85    1818.206000
5198.49    1803.751000
5200.12    1760.963000
5201.75    1844.487000
5203.39    1883.485000
5205.02    1833.205000
5206.66    1897.056000
5208.29    1941.323000
5209.92    1903.239000
5211.56    2094.776000
5213.19    1873.551000
5214.82    1892.836000
5216.46    1979.327000
5218.09    1876.102000
5219.73    1842.965000
5221.36    1824.847000
5222.99    1779.369000
5224.63    1730.506000
5226.26    1744.297000
5227.90    1792.059000
5229.53    1760.982000
5231.16    1835.510000
5232.80    1799.321000
5234.43    1759.230000
5236.06    1675.572000
5237.70    1680.961000
5239.33    1734.060000
5240.97    1690.250000
5242.60    1682.023000
5244.23    1699.545000
5245.87    1589.447000
5247.50    1532.922000
5249.14    1703.575000
5250.77    1680.583000
5252.40    1672.409000
5254.04    1627.211000
5255.67    1660.283000
5257.31    1729.542000
5258.94    1711.439000
5260.57    1677.776000
5262.21    1681.251000
5263.84    1707.002000
5265.48    1578.339000
5267.11    1628.551000
5268.74    1523.841000
5270.38    1634.097000
5272.01    1528.330000
5273.64    1502.990000
5275.28    1567.186000
5276.91    1525.865000
5278.55    1558.375000
5280.18    1466.585000
5281.81    1518.782000
5283.45    1606.635000
5285.08    1521.762000
5286.71    1540.688000
5288.35    1586.003000
5289.98    1612.970000
5291.62    1643.012000
5293.25    1655.226000
5294.88    1611.107000
5296.52    1691.264000
5298.15    1621.983000
5299.78    1596.382000
5301.42    1690.583000
5303.05    1727.180000
5304.69    1533.105000
5306.32    1657.238000
5307.95    1566.910000
5309.59    1473.527000
5311.22    1650.549000
5312.86    1678.619000
5314.49    1630.111000
5316.12    1597.432000
5317.76    1525.066000
5319.39    1631.594000
5321.02    1743.313000
5322.66    1686.903000
5324.29    1685.049000
5325.93    1663.847000
5327.56    1707.844000
5329.19    1740.467000
5330.83    1684.586000
5332.46    1709.368000
5334.10    1694.311000
5335.73    1679.347000
5337.36    1629.106000
5339.00    1614.135000
5340.63    1608.058000
5342.27    1625.173000
5343.90    1574.949000
5345.53    1579.579000
5347.17    1602.302000
5348.80    1539.724000
5350.44    1506.744000
5352.07    1450.957000
5353.70    1466.134000
5355.34    1519.061000
5356.97    1577.994000
5358.60    1648.514000
5360.24    1635.377000
5361.87    1539.495000
5363.51    1649.874000
5365.14    1700.068000
5366.77    1621.799000
5368.41    1581.404000
5370.04    1591.931000
5371.68    1574.702000
5373.31    1573.999000
5374.94    1571.662000
5376.58    1569.178000
5378.21    1582.229000
5379.84    1495.768000
5381.48    1504.531000
5383.11    1538.980000
5384.75    1560.096000
5386.38    1602.937000
5388.01    1609.026000
5389.65    1589.774000
5391.28    1581.986000
5392.91    1599.559000
5394.55    1599.606000
5396.18    1479.013000
5397.82    1437.713000
5399.45    1539.639000
5401.08    1494.516000
5402.72    1427.501000
5404.35    1567.710000
5405.98    1559.144000
5407.62    1573.748000
5409.25    1578.326000
5410.89    1529.343000
5412.52    1509.446000
5414.15    1556.335000
5415.79    1480.179000
5417.42    1520.488000
5419.06    1512.446000
5420.69    1589.755000
5422.32    1417.964000
5423.96    1492.715000
5425.59    1510.541000
5427.23    1521.073000
5428.86    1489.229000
5430.49    1576.412000
5432.13    1598.105000
5433.76    1434.240000
5435.40    1474.795000
5437.03    1377.733000
5438.66    1319.258000
5440.30    1261.476000
5441.93    1205.066000
5443.56    1298.150000
5445.20    1147.526000
5446.83    1211.604000
5448.47    1184.831000
5450.10    1332.648000
5451.73    1277.855000
5453.37    1233.529000
5455.00    1202.576000
5456.64    1270.960000
5458.27    1244.106000
5459.90    1376.466000
5461.54    1262.272000
5463.17    1448.343000
5464.80    1408.849000
5466.44    1437.097000
5468.07    1502.320000
5469.71    1484.558000
5471.34    1642.210000
5472.97    1608.998000
5474.61    1545.322000
5476.24    1502.577000
5477.88    1561.351000
5479.51    1578.957000
5481.14    1515.185000
5482.78    1551.938000
5484.41    1553.092000
5486.04    1551.959000
5487.68    1560.124000
5489.31    1518.297000
5490.95    1558.045000
5492.58    1709.443000
5494.21    1668.602000
5495.85    1587.513000
5497.48    1541.395000
5499.11    1566.579000
5500.75    1620.952000
5502.38    1551.206000
5504.02    1512.467000
5505.65    1606.651000
5507.28    1683.031000
5508.92    1677.401000
5510.55    1646.640000
5512.19    1603.609000
5513.82    1633.265000
5515.45    1781.633000
5517.09    1721.308000
5518.72    1707.993000
5520.35    1751.399000
5521.99    1689.151000
5523.62    1630.435000
5525.26    1757.449000
5526.89    1748.772000
5528.52    1648.643000
5530.16    1730.950000
5531.79    1748.224000
5533.43    1750.446000
5535.06    1578.841000
5536.69    1710.240000
5538.33    1685.047000
5539.96    1615.893000
5541.60    1475.033000
5543.23    1519.761000
5544.86    1425.385000
5546.50    1438.689000
5548.13    1477.193000
5549.76    1464.228000
5551.40    1550.905000
5553.03    1625.472000
5554.67    1485.717000
5556.30    1652.497000
5557.93    1689.538000
5559.57    1722.131000
5561.20    1674.155000
5562.84    1682.688000
5564.47    1861.832000
5566.10    1665.514000
5567.74    1764.936000
5569.37    1847.270000
5571.00    1764.142000
5572.64    1688.332000
5574.27    1541.681000
5575.91    1146.000000
5577.54    1670.083000
5579.17    2339.866000
5580.81    2273.914000
5582.44    1874.511000
5584.07    1452.861000
5585.71    1515.870000
5587.34    1618.047000
5588.98    1731.978000
5590.61    1898.798000
5592.24    1865.856000
5593.88    1858.954000
5595.51    1849.802000
5597.15    1816.277000
5598.78    1745.183000
5600.41    1722.241000
5602.05    1708.961000
5603.68    1692.777000
5605.31    1669.877000
5606.95    1682.999000
5608.58    1698.361000
5610.22    1607.950000
5611.85    1595.774000
5613.48    1610.956000
5615.12    1640.901000
5616.75    1716.854000
5618.39    1721.614000
5620.02    1734.033000
5621.65    1751.343000
5623.29    1716.387000
5624.92    1706.426000
5626.56    1727.708000
5628.19    1790.442000
5629.82    1778.650000
5631.46    1739.024000
5633.09    1728.568000
5634.73    1772.299000
5636.36    1819.012000
5637.99    1813.055000
5639.63    1799.282000
5641.26    1786.785000
5642.89    1850.022000
5644.53    1843.961000
5646.16    1813.658000
5647.80    1744.847000
5649.43    1775.067000
5651.06    1754.926000
5652.70    1723.127000
5654.33    1714.022000
5655.96    1751.183000
5657.60    1761.614000
5659.23    1762.487000
5660.87    1773.102000
5662.50    1727.260000
5664.13    1713.155000
5665.77    1712.200000
5667.40    1725.205000
5669.03    1791.751000
5670.67    1785.757000
5672.30    1721.535000
5673.94    1671.084000
5675.57    1691.811000
5677.20    1689.594000
5678.84    1660.289000
5680.47    1687.939000
5682.11    1721.070000
5683.74    1719.322000
5685.37    1670.333000
5687.01    1660.914000
5688.64    1622.557000
5690.27    1603.580000
5691.91    1636.039000
5693.54    1604.568000
5695.18    1632.295000
5696.81    1669.555000
5698.44    1716.265000
5700.08    1691.647000
5701.71    1703.254000
5703.35    1724.564000
5704.98    1767.464000
5706.61    1786.525000
5708.25    1793.058000
5709.88    1779.586000
5711.52    1666.300000
5713.15    1665.107000
5714.78    1661.100000
5716.42    1656.723000
5718.05    1718.206000
5719.69    1696.713000
5721.32    1673.542000
5722.95    1647.862000
5724.59    1714.152000
5726.22    1725.864000
5727.85    1747.949000
5729.49    1781.954000
5731.12    1726.072000
5732.76    1720.585000
5734.39    1706.717000
5736.02    1684.728000
5737.66    1693.746000
5739.29    1706.543000
5740.93    1695.816000
5742.56    1639.879000
5744.19    1575.836000
5745.83    1600.367000
5747.46    1616.763000
5749.09    1588.957000
5750.73    1592.605000
5752.36    1645.086000
5753.99    1690.337000
5755.63    1674.635000
5757.26    1653.506000
5758.90    1638.162000
5760.53    1632.207000
5762.16    1697.105000
5763.80    1594.562000
5765.43    1532.900000
5767.07    1499.365000
5768.70    1644.858000
5770.33    1638.480000
5771.97    1641.576000
5773.60    1643.398000
5775.23    1537.419000
5776.87    1577.881000
5778.50    1637.854000
5780.14    1718.338000
5781.77    1711.888000
5783.40    1643.292000
5785.04    1624.403000
5786.67    1674.133000
5788.31    1603.663000
5789.94    1683.191000
5791.57    1704.392000
5793.21    1614.849000
5794.84    1638.982000
5796.48    1616.209000
5798.11    1598.407000
5799.74    1612.022000
5801.38    1619.746000
5803.01    1604.227000
5804.65    1596.167000
5806.28    1634.437000
5807.91    1633.747000
5809.55    1606.993000
5811.18    1591.650000
5812.81    1697.411000
5814.45    1661.543000
5816.08    1659.969000
5817.72    1662.606000
5819.35    1604.529000
5820.98    1657.312000
5822.62    1670.476000
5824.25    1659.161000
5825.89    1661.773000
5827.52    1670.479000
5829.15    1677.777000
5830.79    1682.158000
5832.42    1736.078000
5834.05    1714.949000
5835.69    1701.833000
5837.32    1696.106000
5838.96    1664.933000
5840.59    1653.942000
5842.22    1656.978000
5843.86    1685.006000
5845.49    1700.077000
5847.12    1728.523000
5848.76    1748.979000
5850.39    1759.003000
5852.03    1722.933000
5853.66    1714.910000
5855.29    1703.575000
5856.93    1673.707000
5858.56    1631.358000
5860.19    1643.161000
5861.83    1652.944000
5863.46    1602.560000
5865.10    1631.557000
5866.73    1632.218000
5868.36    1627.585000
5870.00    1667.684000
5871.63    1610.764000
5873.27    1631.391000
5874.90    1680.256000
5876.53    1605.965000
5878.17    1654.075000
5879.80    1650.372000
5881.44    1607.014000
5883.07    1607.728000
5884.70    1630.845000
5886.34    1607.422000
5887.97    1532.824000
5889.60    1537.868000
5891.24    1503.780000
5892.87    1504.030000
5894.51    1562.469000
5896.14    1572.806000
5897.77    1580.111000
5899.41    1583.731000
5901.04    1585.977000
5902.68    1645.272000
5904.31    1622.225000
5905.94    1597.085000
5907.58    1605.270000
5909.21    1704.806000
5910.85    1681.235000
5912.48    1630.869000
5914.11    1579.799000
5915.75    1606.979000
5917.38    1648.113000
5919.01    1684.655000
5920.65    1668.521000
5922.28    1595.752000
5923.92    1582.424000
5925.55    1595.423000
5927.18    1651.808000
5928.82    1669.400000
5930.45    1693.531000
5932.09    1717.651000
5933.72    1622.500000
5935.35    1594.099000
5936.99    1593.324000
5938.62    1618.208000
5940.25    1591.648000
5941.89    1576.729000
5943.52    1588.998000
5945.16    1643.855000
5946.79    1595.479000
5948.42    1592.780000
5950.06    1606.370000
5951.69    1650.075000
5953.32    1644.845000
5954.96    1611.073000
5956.59    1589.166000
5958.23    1614.539000
5959.86    1614.373000
5961.49    1590.703000
5963.13    1575.264000
5964.76    1617.381000
5966.40    1653.529000
5968.03    1615.490000
5969.66    1567.735000
5971.30    1608.325000
5972.93    1686.143000
5974.56    1683.904000
5976.20    1652.911000
5977.83    1674.428000
5979.47    1650.356000
5981.10    1640.866000
5982.73    1636.402000
5984.37    1648.572000
5986.00    1636.986000
5987.64    1631.833000
5989.27    1629.087000
5990.90    1657.051000
5992.54    1642.639000
5994.17    1646.543000
5995.81    1675.242000
5997.44    1690.146000
5999.07    1673.109000
6000.71    1659.267000
6002.34    1657.214000
6003.98    1630.776000
6005.61    1628.032000
6007.24    1610.074000
6008.88    1555.245000
6010.51    1542.647000
6012.14    1554.418000
6013.78    1570.002000
6015.41    1589.229000
6017.05    1602.939000
6018.68    1625.575000
6020.31    1647.786000
6021.95    1669.783000
6023.58    1697.026000
6025.21    1699.480000
6026.85    1688.868000
6028.48    1664.698000
6030.12    1693.376000
6031.75    1722.235000
6033.38    1748.509000
6035.02    1771.253000
6036.65    1763.976000
6038.28    1748.479000
6039.92    1723.187000
6041.55    1674.771000
6043.19    1636.322000
6044.82    1621.835000
6046.45    1631.663000
6048.09    1652.371000
6049.72    1674.165000
6051.36    1680.756000
6052.99    1670.487000
6054.62    1684.052000
6056.26    1688.391000
6057.89    1668.553000
6059.52    1598.414000
6061.16    1616.777000
6062.79    1667.571000
6064.43    1710.842000
6066.06    1726.394000
6067.69    1713.014000
6069.33    1701.781000
6070.96    1697.895000
6072.60    1740.476000
6074.23    1740.882000
6075.86    1714.045000
6077.50    1678.230000
6079.13    1656.029000
6080.77    1673.334000
6082.40    1663.304000
6084.03    1638.615000
6085.67    1641.765000
6087.30    1646.696000
6088.94    1635.853000
6090.57    1609.980000
6092.20    1569.717000
6093.84    1599.882000
6095.47    1643.507000
6097.10    1702.249000
6098.74    1638.080000
6100.37    1619.056000
6102.01    1620.979000
6103.64    1658.083000
6105.27    1658.424000
6106.91    1669.222000
6108.54    1690.216000
6110.18    1737.916000
6111.81    1735.239000
6113.44    1728.073000
6115.08    1714.747000
6116.71    1693.156000
6118.34    1641.108000
6119.98    1659.079000
6121.61    1694.801000
6123.24    1752.025000
6124.88    1716.147000
6126.51    1726.405000
6128.15    1735.813000
6129.78    1670.146000
6131.41    1687.215000
6133.05    1699.075000
6134.68    1706.396000
6136.32    1711.637000
6137.95    1734.927000
6139.58    1753.880000
6141.22    1766.302000
6142.85    1697.579000
6144.48    1687.458000
6146.12    1683.310000
6147.75    1684.720000
6149.39    1697.973000
6151.02    1650.861000
6152.65    1652.663000
6154.29    1722.687000
6155.92    1709.303000
6157.56    1689.904000
6159.19    1682.680000
6160.82    1700.153000
6162.46    1685.206000
6164.09    1648.650000
6165.73    1616.856000
6167.36    1608.330000
6168.99    1654.326000
6170.63    1651.137000
6172.26    1632.861000
6173.90    1597.573000
6175.53    1590.593000
6177.16    1621.633000
6178.80    1657.452000
6180.43    1677.474000
6182.06    1630.807000
6183.70    1622.927000
6185.33    1626.141000
6186.97    1607.314000
6188.60    1578.571000
6190.23    1580.723000
6191.87    1589.746000
6193.50    1467.391000
6195.14    1489.224000
6196.77    1464.847000
6198.40    1399.375000
6200.04    1292.272000
6201.67    1299.243000
6203.30    1306.672000
6204.94    1313.377000
6206.57    1254.101000
6208.20    1265.021000
6209.84    1306.185000
6211.47    1400.253000
6213.11    1425.080000
6214.74    1433.425000
6216.38    1444.469000
6218.01    1472.543000
6219.64    1527.495000
6221.28    1538.781000
6222.91    1555.932000
6224.54    1619.305000
6226.18    1596.766000
6227.81    1627.207000
6229.44    1654.778000
6231.08    1619.155000
6232.71    1604.477000
6234.35    1578.255000
6235.98    1559.577000
6237.61    1656.191000
6239.25    1614.936000
6240.88    1593.228000
6242.52    1584.862000
6244.15    1701.860000
6245.78    1609.003000
6247.42    1598.953000
6249.05    1643.358000
6250.69    1629.456000
6252.32    1618.123000
6253.95    1615.985000
6255.59    1622.957000
6257.22    1604.129000
6258.85    1585.797000
6260.49    1560.854000
6262.12    1529.537000
6263.76    1601.313000
6265.39    1618.540000
6267.02    1626.088000
6268.66    1625.489000
6270.29    1701.550000
6271.93    1661.425000
6273.56    1608.584000
6275.19    1568.741000
6276.83    1538.276000
6278.46    1525.286000
6280.10    1519.859000
6281.73    1540.543000
6283.36    1563.596000
6285.00    1601.163000
6286.63    1631.250000
6288.26    1579.691000
6289.90    1605.615000
6291.53    1608.645000
6293.17    1610.104000
6294.80    1752.726000
6296.43    1633.404000
6298.07    1458.875000
6299.70    1244.156000
6301.34    1304.750000
6302.97    1544.035000
6304.60    1653.578000
6306.24    1651.892000
6307.87    1536.042000
6309.50    1551.276000
6311.14    1571.766000
6312.77    1605.604000
6314.41    1620.325000
6316.04    1629.150000
6317.67    1629.244000
6319.31    1618.990000
6320.94    1598.711000
6322.57    1575.892000
6324.21    1559.745000
6325.84    1568.492000
6327.48    1507.658000
6329.11    1520.149000
6330.74    1549.976000
6332.38    1599.350000
6334.01    1519.184000
6335.65    1522.552000
6337.28    1539.907000
6338.91    1516.908000
6340.55    1519.841000
6342.18    1551.478000
6343.81    1590.468000
6345.45    1596.944000
6347.08    1576.687000
6348.72    1590.655000
6350.35    1622.626000
6351.98    1685.996000
6353.62    1605.336000
6355.25    1589.357000
6356.89    1621.684000
6358.52    1694.369000
6360.15    1675.700000
6361.79    1621.948000
6363.42    1522.002000
6365.06    1532.465000
6366.69    1585.394000
6368.32    1646.224000
6369.96    1726.426000
6371.59    1613.708000
6373.22    1645.863000
6374.86    1650.800000
6376.49    1564.764000
6378.13    1548.651000
6379.76    1616.046000
6381.39    1675.436000
6383.03    1670.147000
6384.66    1654.129000
6386.30    1629.626000
6387.93    1605.246000
6389.56    1609.161000
6391.20    1598.868000
6392.83    1621.529000
6394.46    1647.763000
6396.10    1604.639000
6397.73    1584.301000
6399.37    1580.812000
6401.00    1584.942000
6402.63    1627.312000
6404.27    1582.087000
6405.90    1574.433000
6407.53    1591.052000
6409.17    1653.660000
6410.80    1644.224000
6412.44    1613.540000
6414.07    1555.549000
6415.70    1550.767000
6417.34    1576.781000
6418.97    1587.229000
6420.61    1579.945000
6422.24    1575.072000
6423.87    1562.584000
6425.51    1568.604000
6427.14    1622.527000
6428.77    1653.285000
6430.41    1629.925000
6432.04    1603.988000
6433.68    1595.370000
6435.31    1584.512000
6436.94    1573.137000
6438.58    1561.603000
6440.21    1562.644000
6441.85    1578.283000
6443.48    1548.152000
6445.11    1506.888000
6446.75    1516.304000
6448.38    1578.154000
6450.02    1588.221000
6451.65    1568.635000
6453.28    1520.616000
6454.92    1523.352000
6456.55    1518.957000
6458.19    1507.628000
6459.82    1496.640000
6461.45    1513.036000
6463.09    1515.043000
6464.72    1503.525000
6466.35    1493.821000
6467.99    1548.888000
6469.62    1567.854000
6471.26    1541.961000
6472.89    1491.703000
6474.52    1499.849000
6476.16    1509.193000
6477.79    1517.179000
6479.42    1494.550000
6481.06    1479.332000
6482.69    1465.830000
6484.33    1461.445000
6485.96    1389.706000
6487.59    1397.403000
6489.23    1427.552000
6490.86    1494.667000
6492.49    1446.255000
6494.13    1435.755000
6495.76    1434.711000
6497.40    1440.989000
6499.03    1422.481000
6500.66    1439.588000
6502.30    1471.536000
6503.93    1521.552000
6505.57    1513.970000
6507.20    1512.317000
6508.83    1510.720000
6510.47    1495.754000
6512.10    1467.039000
6513.73    1467.733000
6515.37    1493.207000
6517.00    1434.666000
6518.64    1428.043000
6520.27    1446.235000
6521.90    1502.809000
6523.54    1454.925000
6525.17    1421.372000
6526.81    1405.051000
6528.44    1421.193000
6530.07    1448.205000
6531.71    1447.368000
6533.34    1442.818000
6534.98    1442.677000
6536.61    1445.222000
6538.24    1458.699000
6539.88    1461.444000
6541.51    1420.612000
6543.15    1380.634000
6544.78    1380.295000
6546.41    1395.054000
6548.05    1449.551000
6549.68    1417.423000
6551.31    1376.614000
6552.95    1331.971000
6554.58    1315.992000
6556.22    1347.505000
6557.85    1387.161000
6559.48    1427.887000
6561.12    1424.545000
6562.75    1401.878000
6564.39    1401.598000
6566.02    1416.246000
6567.65    1379.057000
6569.29    1362.957000
6570.92    1363.209000
6572.55    1381.475000
6574.19    1370.691000
6575.82    1364.922000
6577.45    1363.931000
6579.09    1372.820000
6580.72    1388.440000
6582.36    1360.974000
6583.99    1341.488000
6585.62    1353.652000
6587.26    1353.375000
6588.89    1353.183000
6590.53    1351.862000
6592.16    1352.763000
6593.79    1372.307000
6595.43    1387.913000
6597.06    1405.198000
6598.69    1446.997000
6600.33    1445.394000
6601.96    1420.228000
6603.60    1393.547000
6605.23    1432.849000
6606.86    1456.511000
6608.50    1445.401000
6610.13    1413.693000
6611.77    1384.338000
6613.40    1402.257000
6615.03    1417.344000
6616.67    1428.138000
6618.30    1428.594000
6619.94    1430.679000
6621.57    1422.035000
6623.20    1400.405000
6624.84    1424.176000
6626.47    1419.036000
6628.10    1431.665000
6629.74    1478.366000
6631.37    1465.289000
6633.01    1419.439000
6634.64    1379.178000
6636.27    1356.003000
6637.91    1408.070000
6639.54    1419.441000
6641.18    1416.142000
6642.81    1392.516000
6644.44    1390.389000
6646.08    1418.908000
6647.71    1446.970000
6649.35    1456.249000
6650.98    1411.547000
6652.61    1396.475000
6654.25    1386.182000
6655.88    1361.227000
6657.51    1358.904000
6659.15    1386.640000
6660.78    1425.323000
6662.42    1453.916000
6664.05    1447.992000
6665.68    1461.894000
6667.32    1486.195000
6668.95    1468.940000
6670.59    1450.015000
6672.22    1442.216000
6673.85    1444.353000
6675.49    1413.112000
6677.12    1414.570000
6678.75    1430.577000
6680.39    1471.697000
6682.02    1436.231000
6683.65    1398.166000
6685.29    1374.022000
6686.92    1376.310000
6688.56    1398.659000
6690.19    1424.484000
6691.82    1441.479000
6693.46    1443.063000
6695.09    1385.094000
6696.73    1363.573000
6698.36    1350.704000
6699.99    1351.902000
6701.63    1358.031000
6703.26    1378.926000
6704.90    1398.784000
6706.53    1400.674000
6708.16    1402.188000
6709.80    1407.845000
6711.43    1419.308000
6713.06    1480.236000
6714.70    1443.198000
6716.33    1420.641000
6717.97    1405.235000
6719.60    1450.686000
6721.23    1437.948000
6722.87    1431.228000
6724.50    1424.335000
6726.14    1437.482000
6727.77    1438.417000
6729.40    1446.413000
6731.04    1464.075000
6732.67    1446.368000
6734.31    1434.383000
6735.94    1427.825000
6737.57    1434.012000
6739.21    1367.571000
6740.84    1405.258000
6742.47    1434.124000
6744.11    1426.834000
6745.74    1427.038000
6747.38    1419.765000
6749.01    1414.490000
6750.64    1423.128000
6752.28    1438.378000
6753.91    1455.410000
6755.55    1458.289000
6757.18    1396.724000
6758.81    1359.216000
6760.45    1355.391000
6762.08    1370.001000
6763.71    1454.268000
6765.35    1393.662000
6766.98    1376.557000
6768.62    1377.597000
6770.25    1373.629000
6771.88    1387.844000
6773.52    1405.859000
6775.15    1425.639000
6776.78    1429.154000
6778.42    1429.295000
6780.05    1430.086000
6781.69    1431.336000
6783.32    1411.607000
6784.95    1406.907000
6786.59    1406.859000
6788.22    1418.397000
6789.85    1423.819000
6791.49    1429.268000
6793.12    1420.387000
6794.76    1386.233000
6796.39    1388.071000
6798.02    1401.307000
6799.66    1416.201000
6801.29    1438.493000
6802.93    1411.577000
6804.56    1425.684000
6806.19    1439.785000
6807.83    1423.122000
6809.46    1432.721000
6811.10    1437.143000
6812.73    1438.424000
6814.36    1435.020000
6816.00    1430.274000
6817.63    1443.459000
6819.27    1458.517000
6820.90    1415.758000
6822.53    1443.017000
6824.17    1440.494000
6825.80    1414.692000
6827.44    1380.025000
6829.07    1384.582000
6830.70    1390.849000
6832.34    1398.168000
6833.97    1367.951000
6835.60    1335.553000
6837.24    1341.234000
6838.87    1405.976000
6840.51    1353.200000
6842.14    1330.788000
6843.77    1318.122000
6845.41    1323.956000
6847.04    1326.408000
6848.67    1355.646000
6850.31    1373.855000
6851.94    1360.185000
6853.58    1364.485000
6855.21    1389.777000
6856.84    1413.606000
6858.48    1418.307000
6860.11    1397.590000
6861.74    1395.079000
6863.38    1395.957000
6865.01    1396.734000
6866.65    1361.888000
6868.28    1360.250000
6869.91    1371.022000
6871.55    1395.159000
6873.18    1342.124000
6874.82    1340.891000
6876.45    1370.944000
6878.08    1441.310000
6879.72    1418.166000
6881.35    1412.464000
6882.98    1421.936000
6884.62    1369.031000
6886.25    1391.022000
6887.89    1398.162000
6889.52    1391.563000
6891.15    1341.699000
6892.79    1362.682000
6894.42    1388.178000
6896.06    1420.648000
6897.69    1336.744000
6899.32    1336.536000
6900.96    1347.242000
6902.59    1371.414000
6904.23    1345.573000
6905.86    1314.905000
6907.49    1296.265000
6909.13    1330.611000
6910.76    1274.167000
6912.40    1246.598000
6914.03    1235.547000
6915.66    1289.019000
6917.30    1290.641000
6918.93    1295.360000
6920.56    1293.835000
6922.20    1231.161000
6923.83    1247.578000
6925.47    1283.524000
6927.10    1330.186000
6928.73    1391.430000
6930.37    1402.155000
6932.00    1411.834000
6933.64    1417.653000
6935.27    1369.064000
6936.90    1359.783000
6938.54    1365.656000
6940.17    1389.900000
6941.80    1344.200000
6943.44    1308.927000
6945.07    1281.925000
6946.70    1269.156000
6948.34    1336.950000
6949.97    1305.420000
6951.61    1284.460000
6953.24    1311.310000
6954.88    1331.906000
6956.51    1332.882000
6958.14    1320.796000
6959.78    1277.236000
6961.41    1276.584000
6963.04    1295.131000
6964.68    1314.035000
6966.31    1323.276000
6967.94    1337.766000
6969.58    1312.735000
6971.21    1274.529000
6972.85    1260.585000
6974.48    1301.530000
6976.11    1333.056000
6977.75    1354.910000
6979.38    1323.477000
6981.02    1275.258000
6982.65    1282.505000
6984.28    1326.743000
6985.92    1338.203000
6987.55    1298.893000
6989.19    1272.757000
6990.82    1257.842000
6992.45    1268.698000
6994.09    1242.617000
6995.72    1228.536000
6997.35    1236.296000
6998.99    1260.900000
7000.62    1274.695000
7002.26    1275.164000
7003.89    1252.027000
7005.52    1270.768000
7007.16    1293.526000
7008.79    1299.190000
7010.43    1258.456000
7012.06    1244.818000
7013.69    1228.945000
7015.33    1221.601000
7016.96    1263.067000
7018.60    1246.148000
7020.23    1242.466000
7021.86    1241.671000
7023.50    1238.569000
7025.13    1239.975000
7026.76    1241.178000
7028.40    1241.866000
7030.03    1265.590000
7031.67    1255.057000
7033.30    1251.721000
7034.93    1251.121000
7036.57    1277.807000
7038.20    1272.778000
7039.84    1270.922000
7041.47    1271.062000
7043.10    1214.534000
7044.74    1225.274000
7046.37    1230.012000
7048.00    1231.391000
7049.64    1186.063000
7051.27    1201.479000
7052.90    1204.642000
7054.54    1182.797000
7056.17    1183.986000
7057.81    1187.657000
7059.44    1182.671000
7061.07    1159.145000
7062.71    1190.330000
7064.34    1194.903000
7065.98    1194.891000
7067.61    1198.818000
7069.24    1224.031000
7070.88    1240.848000
7072.51    1247.334000
7074.15    1217.445000
7075.78    1228.985000
7077.41    1231.488000
7079.05    1228.374000
7080.68    1223.224000
7082.31    1220.442000
7083.95    1216.102000
7085.58    1207.912000
7087.22    1207.803000
7088.85    1201.316000
7090.48    1200.016000
7092.12    1199.557000
7093.75    1177.896000
7095.39    1171.852000
7097.02    1174.540000
7098.65    1187.172000
7100.29    1134.578000
7101.92    1130.491000
7103.56    1139.520000
7105.19    1170.314000
7106.82    1142.348000
7108.46    1141.655000
7110.09    1141.752000
7111.72    1143.205000
7113.36    1161.813000
7114.99    1191.156000
7116.63    1214.858000
7118.26    1219.874000
7119.89    1179.151000
7121.53    1164.082000
7123.16    1163.643000
7124.80    1218.231000
7126.43    1246.576000
7128.06    1215.491000
7129.70    1163.525000
7131.33    1133.560000
7132.96    1176.160000
7134.60    1207.949000
7136.23    1230.436000
7137.87    1205.133000
7139.50    1167.765000
7141.13    1153.685000
7142.77    1153.517000
7144.40    1173.951000
7146.03    1178.829000
7147.67    1191.477000
7149.30    1212.068000
7150.94    1174.634000
7152.57    1160.038000
7154.20    1154.585000
7155.84    1166.516000
7157.47    1145.922000
7159.10    1135.591000
7160.74    1127.145000
7162.37    1124.114000
7164.01    1122.850000
7165.64    1106.219000
7167.27    1097.978000
7168.91    1124.337000
7170.54    1143.374000
7172.18    1121.905000
7173.81    1101.677000
7175.44    1137.559000
7177.08    1110.959000
7178.71    1097.708000
7180.35    1088.602000
7181.98    1091.658000
7183.61    1104.344000
7185.25    1117.856000
7186.88    1130.999000
7188.52    1157.932000
7190.15    1145.794000
7191.78    1132.513000
7193.42    1116.295000
7195.05    1102.652000
7196.69    1124.166000
7198.32    1135.850000
7199.95    1139.190000
7201.59    1088.209000
7203.22    1045.101000
7204.85    1037.884000
7206.49    1083.366000
7208.12    1087.192000
7209.76    1102.123000
7211.39    1108.449000
7213.02    1099.169000
7214.66    1100.392000
7216.29    1096.686000
7217.92    1087.195000
7219.56    1068.268000
7221.19    1074.205000
7222.83    1072.840000
7224.46    1074.672000
7226.09    1101.472000
7227.73    1107.508000
7229.36    1077.944000
7230.99    1035.778000
7232.63    996.074300
7234.26    1045.351000
7235.90    1061.477000
7237.53    1064.089000
7239.16    1086.829000
7240.80    1095.971000
7242.43    1094.392000
7244.07    1085.220000
7245.70    1103.498000
7247.33    1079.705000
7248.97    1062.598000
7250.60    1049.605000
7252.23    1082.297000
7253.87    1074.084000
7255.50    1069.081000
7257.14    1072.141000
7258.77    1098.478000
7260.40    1114.325000
7262.04    1104.663000
7263.67    1053.286000
7265.31    1056.033000
7266.94    1083.380000
7268.57    1089.595000
7270.21    1041.524000
7271.84    1063.363000
7273.48    1069.499000
7275.11    1078.623000
7276.74    1111.571000
7278.38    1020.342000
7280.01    1005.193000
7281.65    1013.221000
7283.28    1050.528000
7284.91    1014.210000
7286.55    1023.222000
7288.18    1042.207000
7289.81    1004.935000
7291.45    1029.697000
7293.08    1034.169000
7294.72    1029.575000
7296.35    1105.472000
7297.98    1057.293000
7299.62    1040.663000
7301.25    1045.424000
7302.89    998.791100
7304.52    1004.234000
7306.15    1016.578000
7307.79    1037.299000
7309.42    1021.604000
7311.05    1059.646000
7312.69    1085.584000
7314.32    1093.618000
7315.95    1080.003000
7317.59    1065.383000
7319.22    1028.736000
7320.86    943.285100
7322.49    1031.456000
7324.12    1033.709000
7325.76    1033.944000
7327.39    1075.105000
7329.03    1072.783000
7330.66    1039.601000
7332.29    1011.153000
7333.93    1051.078000
7335.56    1052.524000
7337.19    1072.694000
7338.83    1094.901000
7340.46    1083.609000
7342.10    1030.735000
7343.73    1009.312000
7345.36    999.568500
7347.00    979.669100
7348.63    1015.924000
7350.27    1031.282000
7351.90    1031.122000
7353.53    1047.894000
7355.17    1029.575000
7356.80    1025.580000
7358.44    1034.718000
7360.07    1041.135000
7361.70    1030.675000
7363.34    1024.299000
7364.97    1028.071000
7366.60    1016.467000
7368.24    1004.597000
7369.87    991.922200
7371.51    979.735700
7373.14    983.715800
7374.77    972.406200
7376.41    969.803400
7378.04    1003.856000
7379.68    1008.415000
7381.31    1011.928000
7382.94    1017.216000
7384.58    1039.043000
7386.21    1010.385000
7387.85    998.638500
7389.48    992.872600
7391.11    1003.330000
7392.75    994.850300
7394.38    970.105700
7396.01    939.240800
7397.65    960.761000
7399.28    989.633400
7400.91    998.308000
7402.55    993.081400
7404.18    973.356300
7405.82    949.374100
7407.45    938.876100
7409.09    940.074200
7410.72    979.727900
7412.35    994.419200
7413.99    986.444200
7415.62    951.605300
7417.25    967.723800
7418.89    989.055500
7420.52    997.977500
7422.15    985.976200
7423.79    941.580100
7425.42    954.887300
7427.06    970.768900
7428.69    982.772000
7430.32    939.913500
7431.96    922.981300
7433.59    910.745700
7435.23    902.504900
7436.86    899.046700
7438.49    880.124500
7440.13    860.865400
7441.76    876.062600
7443.40    861.828100
7445.03    865.358500
7446.66    876.994900
7448.30    903.087200
7449.93    901.257300
7451.56    904.781800
7453.20    907.244400
7454.83    852.399400
7456.47    853.440200
7458.10    870.540600
7459.73    898.834800
7461.37    858.553500
7463.00    843.544700
7464.64    830.850000
7466.27    820.216400
7467.90    848.700400
7469.54    865.939900
7471.17    880.623400
7472.81    896.039400
7474.44    810.695300
7476.07    813.609100
7477.71    824.874900
7479.34    840.821500
7480.97    831.604000
7482.61    834.986100
7484.24    833.663700
7485.88    810.547200
7487.51    795.284300
7489.14    807.072100
7490.78    826.925400
7492.41    861.072800
7494.05    826.181300
7495.68    803.132100
7497.31    784.687800
7498.95    785.172200
7500.58    762.787400
7502.21    770.629900
7503.85    793.211500
7505.48    823.124500
7507.12    784.437300
7508.75    774.463100
7510.38    783.512100
7512.02    770.907200
7513.65    788.615100
7515.28    794.704200
7516.92    788.795400
7518.55    741.743200
7520.19    757.836200
7521.82    769.308000
7523.45    774.881100
7525.09    741.928900
7526.72    744.818700
7528.35    755.736600
7529.99    782.665600
7531.62    768.109600
7533.26    778.215300
7534.89    782.439800
7536.52    761.155800
7538.16    767.648400
7539.79    770.897100
7541.43    768.953100
7543.06    752.373700
7544.69    770.555400
7546.33    777.100500
7547.96    781.253900
7549.60    797.735400
7551.23    795.298600
7552.86    803.441000
7554.50    809.933800
7556.13    745.695700
7557.77    741.277500
7559.40    744.054100
7561.03    751.397200
7562.67    802.813000
7564.30    756.543100
7565.93    750.430100
7567.57    781.574500
7569.20    763.888800
7570.84    766.497400
7572.47    763.280800
7574.10    754.462200
7575.74    741.612500
7577.37    832.301100
7579.01    927.412100
7580.64    1031.202000
7582.27    1184.520000
7583.91    1295.759000
7585.54    1344.045000
7587.17    1240.915000
7588.81     0.000000
7590.44     0.000000
7592.08     0.000000
7593.71     0.000000
7595.34     0.000000
7596.98     0.000000
