#Wavelength     Flux    Sky Spectrum 
#[Angstrom]   [Counts]     [Counts]
4657.89     8.320028     0.939773
4658.51     5.738250     2.324172
4659.12     1.139076     4.896504
4659.74     7.353470     1.313739
4660.35     8.909596     1.422545
4660.97    10.670621     2.121623
4661.58    11.427034     2.236563
4662.19     6.391397     3.007853
4662.81     2.824224     2.175966
4663.42     7.252579     1.236681
4664.04     8.793598     0.821265
4664.65     6.528014     1.287064
4665.27     7.114604     2.009326
4665.88     8.721107     1.884760
4666.49    10.013988     3.117681
4667.11     9.097839     1.323791
4667.72     5.736098     0.669618
4668.34     4.128815     4.106253
4668.95     8.344967     2.484511
4669.57     9.741286     0.694967
4670.18     7.539719     2.533700
4670.80     7.768090     3.861956
4671.41     9.933663     1.884495
4672.02     7.087815     1.840973
4672.64     9.790848     2.842134
4673.25    10.205583     2.661853
4673.87     7.421460     1.782585
4674.48     9.431164     2.099237
4675.10    14.608547     3.061723
4675.71    13.392216     1.501221
4676.33     6.664345     1.382275
4676.94     4.487486     1.833599
4677.55     8.243828     1.009057
4678.17     8.741609     1.933149
4678.78    13.155947     1.475515
4679.40    16.407040     0.290977
4680.01    12.582725     0.121366
4680.63     6.492492     1.200261
4681.24     6.818021     2.028837
4681.86     9.003149     1.053939
4682.47    12.321619     2.057713
4683.08    11.847328     3.004551
4683.70     7.250767     1.756989
4684.31     5.949690     1.903711
4684.93     9.262212     4.752173
4685.54    16.015873     3.139001
4686.16    17.147186    -0.324578
4686.77    11.681042     0.875714
4687.39     7.979537     3.995340
4688.00     6.388203     0.483332
4688.61     4.854332     1.607904
4689.23    10.051001     3.163467
4689.84    13.336362     1.499968
4690.46     6.646182     1.045154
4691.07     5.814287     1.999741
4691.69     6.386149     1.092103
4692.30     4.831888     2.075814
4692.91     6.651916     2.634380
4693.53    11.241184     0.924531
4694.14     8.454445     1.905333
4694.76     3.612079     2.189521
4695.37     4.155993     1.404205
4695.99     7.125047     0.870662
4696.60     9.802247     1.087558
4697.22    12.995528     1.993701
4697.83    11.112372     3.759367
4698.44     5.754972     3.748752
4699.06     3.625873     1.860596
4699.67     3.814685     1.136916
4700.29     5.512856     1.989816
4700.90    13.417589     1.043959
4701.52    12.395175     1.742517
4702.13    10.246846     1.630646
4702.75     9.119605     0.809568
4703.36     5.215039     1.100762
4703.97     2.956365     1.952719
4704.59     7.280816     3.003033
4705.20    13.315603     1.995787
4705.82    15.246296     0.164525
4706.43    13.339210     0.402631
4707.05    10.809639     2.039448
4707.66     8.238616     1.215620
4708.28     7.773337     0.156435
4708.89     8.183330     0.137804
4709.50     4.998374     2.063365
4710.12     0.700552     4.137513
4710.73     3.757316     3.073433
4711.35    10.287111     1.270175
4711.96     9.375915     0.894972
4712.58     8.380574     0.969348
4713.19    10.207781     1.169393
4713.81     7.587506     2.072290
4714.42     3.821758     2.159968
4715.03     9.310137     0.330116
4715.65     9.998292     0.742071
4716.26     5.155010     2.732123
4716.88     5.940376     2.780913
4717.49    10.001481     1.002448
4718.11     5.849711     0.044285
4718.72    12.531761     0.344421
4719.33    12.251463     2.284334
4719.95     8.601680     2.524534
4720.56    13.009376     1.039295
4721.18     7.480105     2.902663
4721.79     5.004718     2.477408
4722.41    10.584217     1.088802
4723.02     9.569738     1.498804
4723.64     8.837869     1.728935
4724.25    18.177465    -0.084043
4724.86    12.179632    -0.118818
4725.48     7.762693     0.792682
4726.09     9.787529     1.015986
4726.71    10.680202     1.199246
4727.32     8.752937     2.287894
4727.94    10.022771     2.997030
4728.55    13.054120     2.015378
4729.17    10.017071     2.934080
4729.78    10.359249     1.631267
4730.39    11.321130    -0.165793
4731.01     7.659057     1.275069
4731.62     7.970111     2.021062
4732.24     8.000253     1.021777
4732.85     8.479824     2.167068
4733.47     9.614516     3.293175
4734.08     9.900533     2.799950
4734.70     8.851177     1.829792
4735.31     8.009269     0.931049
4735.92     8.194142     3.224113
4736.54     6.462942     4.923928
4737.15     3.860265     4.816393
4737.77     4.951940     3.437845
4738.38     8.019640     1.981269
4739.00     5.343409     2.887675
4739.61     4.488230     3.109734
4740.23     6.685669     2.869924
4740.84     8.749569     3.343074
4741.45    10.722909     4.159534
4742.07    14.175786     3.944158
4742.68    15.351208     2.283572
4743.30    11.064825     0.905300
4743.91    10.621844     2.145020
4744.53     9.425423     2.879173
4745.14     5.737618     1.878139
4745.75     7.015836     2.001309
4746.37     6.706094     1.931684
4746.98    10.666925     2.775792
4747.60    11.942248     2.725245
4748.21    10.811657     1.408075
4748.83     9.209831     1.197641
4749.44     7.054112     3.032400
4750.06    13.399296     4.002888
4750.67    11.189822     3.418367
4751.28     7.625380     2.407983
4751.90    11.277095     1.798976
4752.51    15.103221     0.578587
4753.13     9.911796     0.027551
4753.74     1.591086     4.598783
4754.36     4.059257     3.116362
4754.97    10.847867     2.212451
4755.59    13.354068     2.807190
4756.20    11.360765     2.083231
4756.81     8.997090     2.997668
4757.43    10.583567     1.313855
4758.04    11.624355     0.757292
4758.66     8.718835     1.459825
4759.27     4.497572     2.434639
4759.89     4.627368     3.000408
4760.50     9.034952     1.979109
4761.12     9.327139     0.157066
4761.73     7.728896     0.463067
4762.34    10.293847     1.735556
4762.96    14.161350     1.812071
4763.57    11.697877     0.768597
4764.19     5.975061    -0.010906
4764.80     8.735455    -0.103051
4765.42     6.482515     1.117117
4766.03     4.524625     3.682082
4766.65     7.947301     2.748731
4767.26    14.859229    -0.225247
4767.87    17.804426     1.043778
4768.49     7.103807     1.122353
4769.10     7.869740     0.593721
4769.72    11.868406     2.861369
4770.33    11.701428     3.598218
4770.95     8.953925     1.787630
4771.56     6.028227     1.994657
4772.18     9.534773     1.148597
4772.79    10.487069     0.659037
4773.40     8.807018     2.410820
4774.02     7.582574     2.344375
4774.63     6.658616     1.027418
4775.25     7.280668     1.998078
4775.86    11.826602     1.028572
4776.48     9.779001     1.853524
4777.09     9.516231     1.283681
4777.70     9.060257     1.760701
4778.32     6.587062     2.965992
4778.93     7.124218     1.977365
4779.55     8.786966     2.905702
4780.16    11.506064     3.250457
4780.78    11.916914     1.768629
4781.39     9.530240     0.659966
4782.01     7.722197     1.434055
4782.62     6.651053     3.271924
4783.23     4.884604     4.066224
4783.85     9.597435     1.998662
4784.46     6.726292     4.255166
4785.08     6.215015     3.408840
4785.69     9.533864     0.771416
4786.31     9.005758     2.146229
4786.92     9.987358     2.000071
4787.54    10.051340     2.169666
4788.15     9.679116     0.760475
4788.76     7.127522     3.509906
4789.38     6.610390     6.216769
4789.99    11.083282     3.165148
4790.61    12.930905     1.015561
4791.22     7.480952     3.647045
4791.84     8.852033     3.705263
4792.45    10.287333     1.744235
4793.07    13.299452     0.780520
4793.68    15.222138     1.173696
4794.29     7.509969     2.066694
4794.91     3.249059     2.932733
4795.52     2.882033     3.102229
4796.14     8.478264     2.553993
4796.75    11.005923     1.328674
4797.37    10.449829     1.353805
4797.98    11.785558     3.132844
4798.60     6.433194     3.066628
4799.21     3.512667     2.123644
4799.82     7.531335     2.093249
4800.44     8.233274     1.395668
4801.05    10.082547     1.396420
4801.67    14.749654     3.194282
4802.28     9.053980     3.029050
4802.90    12.883698     1.985035
4803.51    14.892835     2.902556
4804.12    12.157210     1.894558
4804.74    11.191772     1.459818
4805.35    11.843671     3.052038
4805.97     8.901254     1.983728
4806.58     6.640553     2.057902
4807.20    11.732068     1.081573
4807.81    11.450878     2.022290
4808.43     8.203847     3.174212
4809.04     9.550436     3.114782
4809.65     9.808261     4.062095
4810.27     6.923793     4.093081
4810.88    10.626726     3.031751
4811.50     7.867081     3.818193
4812.11    10.807263     2.970441
4812.73    17.631605     0.434845
4813.34    11.945692     1.386314
4813.96     6.106737     4.876332
4814.57     7.404142     5.273666
4815.18     7.931125     4.143826
4815.80     1.784420     4.319544
4816.41     5.058408     2.876677
4817.03    13.779820     1.258904
4817.64     5.990245     4.001677
4818.26    12.021973     1.450740
4818.87    11.743688     0.906051
4819.49    12.863346     0.448528
4820.10    12.140914     3.109680
4820.71     9.726708     5.570808
4821.33    16.238865     0.800166
4821.94    15.289805     0.862210
4822.56    14.964993     1.152840
4823.17    19.634401     0.731189
4823.79    19.483301     1.872344
4824.40    13.114814     3.089569
4825.02     8.490790     3.115459
4825.63     5.993875     4.057078
4826.24     9.199858     1.500665
4826.86    17.216137     1.337674
4827.47    17.078484     2.373378
4828.09     9.230997     1.416093
4828.70    12.324986    -0.206441
4829.32    24.002121     0.995670
4829.93     9.414085     5.691423
4830.54     7.121201     3.939429
4831.16     9.303251     3.751713
4831.77    10.216111     4.991304
4832.39    13.280595     3.830181
4833.00    11.892652     2.849792
4833.62    11.000582     0.060576
4834.23    10.394295     2.138272
4834.85     3.832996     3.366812
4835.46     7.793113     2.722026
4836.07    15.043872     1.331761
4836.69     9.731694     0.090232
4837.30    13.610662     1.960031
4837.92    16.988932     1.065515
4838.53     8.985189     2.366173
4839.15    10.800364     2.504294
4839.76    13.219161     2.654537
4840.38     5.672695     5.312004
4840.99    12.002648     4.999543
4841.60    16.965311     3.301334
4842.22    14.352678     2.123161
4842.83    12.125582     2.253303
4843.45     8.869831     3.875779
4844.06     8.125569     5.018392
4844.68    15.232924     3.919101
4845.29    12.774318     3.053925
4845.91     6.847882     2.922021
4846.52     7.052867     3.190253
4847.13    10.546160     2.372337
4847.75     8.277152     2.449090
4848.36     6.868680     4.008673
4848.98    16.027504     3.002379
4849.59     5.884916     4.028646
4850.21     7.949296     2.113466
4850.82    13.642723     0.862328
4851.44    10.496242     2.951634
4852.05     9.384792     3.792641
4852.66    13.004675     0.992710
4853.28    13.418248    -0.217204
4853.89    19.139126     2.194930
4854.51    16.101509     3.096170
4855.12     8.787018     3.529519
4855.74     8.052911     3.515514
4856.35    10.306868     0.946661
4856.96    14.944990     1.929273
4857.58    11.693768     1.208474
4858.19    12.812510     1.567580
4858.81     9.383052     1.819448
4859.42     5.927364     2.805094
4860.04    12.252295     4.965345
4860.65     9.147925     2.178559
4861.27    10.265779     0.854322
4861.88    12.169462     1.935728
4862.49    11.094333     0.950242
4863.11    12.151425     0.384113
4863.72    13.523020     2.104368
4864.34     9.000551     1.000536
4864.95    11.441020     0.646358
4865.57    12.274504     3.558275
4866.18    11.879453     2.420888
4866.80     9.221260     1.466542
4867.41     7.375799     2.864555
4868.02     9.964490     0.962510
4868.64     7.024245     1.917788
4869.25    10.346390     1.321249
4869.87     8.642949     1.109968
4870.48     8.285007     3.360199
4871.10    15.097305     3.134624
4871.71    17.831882    -0.060312
4872.33    14.138221     1.914854
4872.94    14.868608     1.198942
4873.55    13.246326     1.674848
4874.17    11.445155     1.455608
4874.78     7.880779     1.534951
4875.40     7.308140     2.945503
4876.01    18.912088     1.985541
4876.63    16.380640     4.719004
4877.24    11.228605     3.398064
4877.86     8.610283     0.599538
4878.47    10.832260     2.571159
4879.08    13.975847     4.809812
4879.70    10.898762     1.947277
4880.31     9.426662     2.880329
4880.93     5.389287     2.298350
4881.54     7.876019     2.343679
4882.16    12.409536     3.388930
4882.77    13.259082     2.407921
4883.38    13.993046     1.082538
4884.00    13.094690     3.007820
4884.61    12.316849     0.583206
4885.23    11.200264     0.797485
4885.84    14.829625     2.807348
4886.46    15.754377     2.848329
4887.07    10.931542     1.817741
4887.69    14.863211     0.995649
4888.30    13.494720     1.811837
4888.91     6.492685     2.074789
4889.53    10.347357     2.138400
4890.14    12.040002     4.036944
4890.76     4.658199     6.136693
4891.37    10.025685     4.992139
4891.99    12.998169     3.853300
4892.60    12.476239     5.741486
4893.22    15.670542     4.347380
4893.83    15.499014     0.753835
4894.44    10.181385     1.895876
4895.06    12.322211     4.959747
4895.67    18.807026     1.267000
4896.29    14.477559     2.952368
4896.90     8.633925     4.431512
4897.52     2.737922     3.716082
4898.13     4.909179     2.401436
4898.75    17.568918     1.055534
4899.36    14.556818     2.916286
4899.97    11.199356     2.206080
4900.59    10.895588     2.613607
4901.20     7.761911     2.619335
4901.82     9.073117     2.144471
4902.43    17.739336     3.020085
4903.05    18.081835     2.073361
4903.66    16.645996     1.074591
4904.28    12.876878     1.373293
4904.89     9.534301     3.099892
4905.50    11.437328     4.049357
4906.12    10.676023     4.183891
4906.73     2.005436     5.019036
4907.35    12.009665     2.352975
4907.96    22.040554     2.604917
4908.58    17.286554     2.514005
4909.19    10.747332     2.351113
4909.80    10.744808     2.729441
4910.42     7.959210     1.003970
4911.03     7.730114     3.491873
4911.65     9.643642     5.107440
4912.26     9.810937     4.176650
4912.88    13.954475     1.985804
4913.49    17.570255     1.099532
4914.11    11.808261     1.996137
4914.72    11.871470     1.046976
4915.33    11.402493     1.761478
4915.95    10.927453     1.590668
4916.56    13.802217     0.764248
4917.18    14.050540     1.239693
4917.79    11.222161     2.025047
4918.41    19.170578     1.979303
4919.02    22.250248     2.256792
4919.64    20.823963     0.521011
4920.25    16.344349     0.845027
4920.86    16.487804     1.622210
4921.48    19.430166     0.095695
4922.09     7.748498     2.875910
4922.71     6.788831     1.698317
4923.32    10.009985     0.506398
4923.94     8.857349     5.408673
4924.55    10.897151     6.814334
4925.17    14.564080     0.604188
4925.78     7.998992     1.882780
4926.39    15.448017     2.089251
4927.01    14.070975     2.439111
4927.62     6.586771     3.637849
4928.24     7.445185     3.888558
4928.85    12.351587     2.807472
4929.47    11.112528     1.997190
4930.08     9.783237     2.771423
4930.70    11.723125     3.238404
4931.31    10.558178     2.278675
4931.92    11.736241     0.172491
4932.54    14.351057     0.542173
4933.15     7.063396     4.011497
4933.77    11.806086     0.397532
4934.38    12.542821     2.538822
4935.00     9.581127     3.456305
4935.61     8.981348     2.043504
4936.22     8.905311     2.930813
4936.84    10.864467     1.035559
4937.45    18.917608     0.096267
4938.07    11.504597    -0.240854
4938.68     9.196465     0.985525
4939.30    11.128891     2.190598
4939.91     8.416435     1.996111
4940.53    13.975060     2.975366
4941.14    10.872999     4.981002
4941.75     9.123061     3.161650
4942.37     7.943877     1.223299
4942.98     7.204341     0.823120
4943.60     9.480671     1.305832
4944.21    10.998840     3.976617
4944.83    10.728000     5.338906
4945.44    13.726543     2.002842
4946.06    15.388066     1.758934
4946.67    14.988380     2.767432
4947.28    16.432039     0.723523
4947.90    16.048948     0.987343
4948.51     9.007133     2.172952
4949.13    16.445463     0.056416
4949.74    19.231506     2.566121
4950.36    13.016944     4.587770
4950.97    12.304835     1.871479
4951.59    15.940475     3.001781
4952.20    19.073973     1.205405
4952.81    16.289766     2.180322
4953.43    15.120648     3.102877
4954.04    15.947631     0.946639
4954.66    14.876494     0.389392
4955.27    14.047406     3.958372
4955.89    11.804499     3.305744
4956.50    15.500015     2.921272
4957.12    16.454229     2.652130
4957.73    17.517990     1.686921
4958.34    20.754715     0.820922
4958.96    13.333681     1.823916
4959.57     6.900052     8.398830
4960.19    11.938732     5.710238
4960.80    16.122381     1.719940
4961.42    16.562046     2.141642
4962.03    17.880722     1.938840
4962.64    15.126886     1.952797
4963.26    14.134642     3.551921
4963.87    12.990438     4.817864
4964.49    10.754230     4.900625
4965.10    10.322577     3.133317
4965.72    14.913511     0.875997
4966.33    19.293129     1.013552
4966.95    10.143937     0.140295
4967.56    14.566935     0.510619
4968.17    19.042406     1.141624
4968.79    17.734287     0.963417
4969.40    23.411753     1.006496
4970.02    24.073591     1.007563
4970.63    22.608849     1.362504
4971.25    15.022559     4.331255
4971.86    12.681875     3.585840
4972.48    14.556255     0.946208
4973.09    12.140971     3.112898
4973.70    17.619686     3.083615
4974.32    16.631031     2.502418
4974.93    22.081919     0.435320
4975.55    22.760117     1.117966
4976.16    13.267188     4.577309
4976.78    14.269905     3.891381
4977.39    22.747971     0.296838
4978.01    17.492783     1.018085
4978.62    20.053341     3.147692
4979.23    22.570148     4.650489
4979.85    16.856182     4.678360
4980.46    19.014322     2.997806
4981.08    11.122334     4.947440
4981.69    12.242413     2.814134
4982.31    17.347744     3.153418
4982.92    17.737888     5.101760
4983.54    17.044542     3.925103
4984.15    17.109449     4.040999
4984.76    12.503635     2.771049
4985.38     8.683385     5.524636
4985.99    18.008728     3.531431
4986.61    21.998405    -0.003371
4987.22     9.194247     4.557348
4987.84     9.810025     7.888767
4988.45     9.128685     7.017802
4989.06    10.770723     3.646831
4989.68    11.629168     7.097095
4990.29    11.664576    10.329034
4990.91    16.190264     3.804246
4991.52    17.844620     4.055859
4992.14    18.633821     1.079600
4992.75    15.227581     0.487416
4993.37    15.585222     2.668250
4993.98    18.721382     3.006454
4994.59    14.017237     2.999731
4995.21    16.056770     3.031408
4995.82    19.143023     2.839891
4996.44    16.987625     3.741625
4997.05    10.547980     5.673214
4997.67     7.095285     5.742542
4998.28    12.445526     3.094944
4998.90    17.298309     4.108430
4999.51     7.146851     7.050636
5000.12     8.931539     4.974147
5000.74    19.965057     1.916073
5001.35    13.482820     4.097248
5001.97    12.001728     3.308241
5002.58    22.375681     1.654862
5003.20    19.590012     4.206967
5003.81    21.131683     3.324178
5004.43    27.815758     0.246582
5005.04    15.020837     4.981185
5005.65    24.894920     4.559369
5006.27    32.118408     2.464877
5006.88    19.958241     1.847616
5007.50    10.464942     2.084730
5008.11    16.608553     1.931417
5008.73    17.076513     1.876578
5009.34    16.934286     4.372413
5009.96    16.404444     5.194384
5010.57     9.945196     5.137089
5011.18     8.788224     4.539653
5011.80    20.301931     1.905031
5012.41    19.081398     0.952553
5013.03    13.575241     1.695029
5013.64    14.853613     2.099787
5014.26    16.927742     1.985132
5014.87    14.791546     1.985341
5015.48    15.874334     2.866863
5016.10    20.020702     6.013404
5016.71    28.435366     2.855187
5017.33    26.952332     1.419917
5017.94    22.189322     2.835289
5018.56    25.984730     0.972851
5019.17    20.075188     3.374777
5019.79    15.252926     7.076254
5020.40    16.478313     4.143136
5021.01    23.480701     2.694695
5021.63    27.793562     4.742772
5022.24    21.213737     1.038893
5022.86    16.820662     2.736635
5023.47    20.684771     1.211780
5024.09    26.813219     0.272810
5024.70    21.110409     2.650654
5025.32     8.679641     2.882207
5025.93    14.837090     1.054640
5026.54    19.287964     2.352502
5027.16    16.929008     3.361164
5027.77    11.777402     5.266142
5028.39    10.530806     6.731766
5029.00    16.818064     3.079791
5029.62    19.859911     2.120084
5030.23    13.200074     1.077126
5030.85    13.032720     2.029068
5031.46    18.931215     2.513671
5032.07    16.659269     1.143780
5032.69    13.740702     4.892086
5033.30    18.746895     1.934800
5033.92    18.199648     2.724622
5034.53    16.581429     4.985299
5035.15    21.958033     1.194327
5035.76    24.976482    -0.185681
5036.38    24.109114     6.348073
5036.99    24.667379     3.113161
5037.60    21.065178    -0.016209
5038.22    14.921717     4.001897
5038.83    16.237299     4.941986
5039.45    21.628042     2.449037
5040.06    20.125927     0.939352
5040.68    19.011274     1.576934
5041.29    15.501871     1.810187
5041.90    11.424953     0.961917
5042.52    21.171700     1.048034
5043.13    25.253216     0.003105
5043.75    18.323977     1.203732
5044.36    15.473684     1.723006
5044.98    19.531090     1.193443
5045.59    20.000702     3.000420
5046.21    22.200195     2.901768
5046.82    18.370441     4.376851
5047.43    18.446909     4.642913
5048.05    18.710224     2.108550
5048.66    15.311486     1.123168
5049.28    22.921673     4.522070
5049.89    15.245609     5.851822
5050.51    17.091007     2.325933
5051.12    21.037573     2.082497
5051.74    11.692970     4.875878
5052.35    10.590857     1.148888
5052.96    19.421425     2.225130
5053.58    19.493626     3.638546
5054.19    19.341221     1.853146
5054.81    17.966167     1.483176
5055.42     9.008148     5.011558
5056.04    20.706497     4.615164
5056.65    22.129234     1.650132
5057.27    16.736097     1.635709
5057.88    16.115210     3.161296
5058.49    18.270216     1.846981
5059.11    20.492607     0.756744
5059.72    13.689985     4.050778
5060.34    14.284711     4.200745
5060.95    16.034519     0.890304
5061.57    16.284912     0.123471
5062.18    28.796253     1.889483
5062.80    19.294632     2.025750
5063.41    17.696512     2.506450
5064.02    23.039686     3.091925
5064.64    18.690477     3.029899
5065.25    14.919440     3.025386
5065.87    20.225492     1.982790
5066.48    12.467366     3.223557
5067.10    12.565626     3.886968
5067.71    23.510382     2.810470
5068.32    18.773401     3.016573
5068.94     9.200634     3.331460
5069.55    15.625692     0.629104
5070.17    17.649923     1.198771
5070.78    14.317813     2.869520
5071.40    20.411472     0.949487
5072.01    22.340252     2.526604
5072.63    18.813314     4.937249
5073.24    19.074270     3.635100
5073.85    18.930676     1.815534
5074.47    13.464150     3.209994
5075.08    11.897565     4.077902
5075.70    13.938214     2.465174
5076.31    16.338514     2.227568
5076.93    12.115696     3.381731
5077.54    13.043266     2.667270
5078.16    27.997995     0.942102
5078.77    12.643257     3.995718
5079.38    10.153087     5.472998
5080.00    17.695534     4.686610
5080.61    20.391626     3.700215
5081.23    29.786079     2.044082
5081.84    28.189829     1.823221
5082.46    20.027122     2.621102
5083.07    19.362644     3.194213
5083.69    23.187654     4.557151
5084.30    21.990780     6.992510
5084.91    25.680523     5.854850
5085.53    23.608334     2.008377
5086.14    25.808117     1.668422
5086.76    29.665369     4.663164
5087.37    23.912743     4.965066
5087.99    23.688112     2.411925
5088.60    23.484921     1.853212
5089.22    16.074228     1.791193
5089.83    14.985956     2.608165
5090.44    26.287500     3.929687
5091.06    26.076675     0.384005
5091.67    28.687183     1.193269
5092.29    25.685894     1.575110
5092.90    24.840948     1.567668
5093.52    30.754641     4.036098
5094.13    19.201639     2.346675
5094.74    21.989475     1.679210
5095.36    24.473612     2.522643
5095.97    17.843916     3.105291
5096.59    13.853762     2.970763
5097.20    14.511919     2.875567
5097.82    17.431849     4.312509
5098.43    13.703608     5.485016
5099.05    16.411003     4.255468
5099.66    25.907263     1.863528
5100.27    13.959304     1.832276
5100.89     8.508375     2.959568
5101.50    14.117125     2.278889
5102.12    20.823797     2.698536
5102.73    20.527573     5.060016
5103.35    13.648771     4.060530
5103.96    13.923635     4.898214
5104.58    19.189024     3.710920
5105.19    18.406767     1.721607
5105.80    15.341316     3.250144
5106.42    24.046425     5.087769
5107.03    24.204535     3.036544
5107.65    19.033842     5.443166
5108.26    16.553200     5.525753
5108.88    14.607796     1.129439
5109.49    12.128349     6.723880
5110.11    23.671913     2.746861
5110.72    24.360847     2.634177
5111.33    18.782978     4.165691
5111.95    24.502228    -0.038284
5112.56    26.428215     3.541501
5113.18    21.402569     3.091911
5113.79    17.063625     1.423070
5114.41    15.515392     2.586360
5115.02    15.082333     4.033965
5115.64    16.897575     3.260550
5116.25    16.084835     2.032851
5116.86    17.321867     2.701900
5117.48    16.897930     4.468897
5118.09    14.156746     3.830049
5118.71    19.912615     0.242517
5119.32    13.597361     1.746471
5119.94    10.021255     3.258145
5120.55    13.583883     3.254267
5121.17    15.162136     3.960735
5121.78    22.440847     1.417119
5122.39    26.535051     1.218997
5123.01    20.620378     2.739905
5123.62    16.447458     2.779280
5124.24    23.053299     2.004639
5124.85    23.548517     3.089695
5125.47    21.147814     1.286617
5126.08    15.913033     2.782570
5126.69    15.202775     6.185307
5127.31    22.934517     4.041766
5127.92    21.171816     3.170356
5128.54    24.639744     1.969686
5129.15    25.974777     0.326725
5129.77    19.976179     0.152232
5130.38    18.868130     1.882714
5131.00    21.226545     4.129663
5131.61    12.547560     6.907230
5132.22    12.174336     5.421658
5132.84    24.073282     0.393217
5133.45    23.187366    -0.184869
5134.07    23.610117     2.856099
5134.68    23.703434     5.199758
5135.30    25.295301     4.196807
5135.91    27.926622     3.170957
5136.53    23.710354     5.898443
5137.14    20.558590     3.984975
5137.75    23.445126     3.143512
5138.37    23.958841     4.004558
5138.98    18.806311     2.926678
5139.60    20.276926     2.190487
5140.21    23.592993     1.022559
5140.83    22.948206     1.916416
5141.44    18.712341     2.871686
5142.06    15.997664     2.015199
5142.67    19.798414     4.470349
5143.28    30.090038     5.031323
5143.90    28.184008     2.601534
5144.51    17.606787     0.946003
5145.13    18.837698     1.967622
5145.74    22.959963     2.058884
5146.36    25.116600     2.234300
5146.97    18.968708     3.937667
5147.59    13.292431     4.852559
5148.20    20.582132     2.266619
5148.81    18.619013     0.822971
5149.43    16.715837     2.163279
5150.04    18.588310     5.140411
5150.66    21.517487     7.040900
5151.27    26.184643     6.171727
5151.89    20.790382     5.531896
5152.50    24.895548     3.601124
5153.11    30.333109     1.813165
5153.73    19.720461     3.057460
5154.34    15.939743     4.874033
5154.96    23.765961     4.371858
5155.57    26.114220     4.317359
5156.19    18.184286     4.937571
5156.80    14.844393     4.015027
5157.42    22.175072     4.248482
5158.03    23.307415     2.436089
5158.64    17.720762     3.234036
5159.26    14.929553     7.351019
5159.87    15.218870     7.182021
5160.49    12.014171     6.045272
5161.10    15.500303     6.624763
5161.72    18.482052     8.761191
5162.33    13.904658     8.831460
5162.95    16.355297     4.453171
5163.56    17.611570     5.258167
5164.17    19.638224     4.970937
5164.79    25.668697     3.082700
5165.40    30.015427     4.988456
5166.02    25.964830     3.372630
5166.63    25.896084     3.685984
5167.25    26.193707     3.064859
5167.86    18.381922     1.047939
5168.48     9.978805     3.698989
5169.09    17.797235     4.404592
5169.70    24.464779     3.311888
5170.32    21.518223     3.185728
5170.93    19.081888     4.011339
5171.55    22.308229     3.296754
5172.16    16.019421     2.324179
5172.78    14.310252     4.924460
5173.39    22.854548     6.650369
5174.01    25.245255     2.193384
5174.62    16.655422     0.782804
5175.23    17.354719     1.625260
5175.85    21.523106     2.007120
5176.46    21.283386     2.070188
5177.08    25.680374     2.946308
5177.69    24.232672     2.786891
5178.31    22.843969     4.082599
5178.92    20.537642     4.676445
5179.53    19.069656     1.980274
5180.15    32.613083     1.472787
5180.76    26.458530     4.472906
5181.38    17.550430     6.220223
5181.99    20.030571     4.667159
5182.61    20.225145     3.101655
5183.22    32.302486     2.792161
5183.84    27.009502     3.544041
5184.45    17.783281     4.010319
5185.06    26.374205     2.894965
5185.68    25.912523     1.600619
5186.29    15.872672     5.519526
5186.91    21.101505     5.936309
5187.52    33.945564     1.204256
5188.14    26.778856     0.807974
5188.75    18.575764     4.906530
5189.37    21.039396     5.940545
5189.98    30.540989     2.498426
5190.59    31.176706    -0.000440
5191.21    16.340101     1.794232
5191.82    20.688547     1.231142
5192.44    27.707483     2.057140
5193.05    27.344715     4.132956
5193.67    27.343529     3.047991
5194.28    15.874046     2.928218
5194.90    18.406010     2.911234
5195.51    24.177525     3.339055
5196.12    19.813005     3.971180
5196.74    21.673903     3.677093
5197.35    21.350677     7.009727
5197.97    21.794466     6.988640
5198.58    21.039913     5.115626
5199.20    16.058899     7.006926
5199.81    19.266104     4.537650
5200.43    23.145058     5.075324
5201.04    24.305704     5.270695
5201.65    22.568060     1.773075
5202.27    18.017717     1.117811
5202.88    22.053371    -0.059955
5203.50    22.981081     1.444704
5204.11    19.912445     4.354077
5204.73    21.966795     4.031971
5205.34    20.402103     3.521473
5205.95    21.517065     1.163316
5206.57    29.905560     0.270867
5207.18    38.277348     2.066653
5207.80    34.201698     1.288719
5208.41    21.835251     0.470715
5209.03    15.307025     2.409125
5209.64    16.122766     5.504318
5210.26    16.796721     6.070911
5210.87    21.763485     4.463452
5211.48    27.245434     3.928533
5212.10    31.325821     3.753674
5212.71    32.942383     3.004560
5213.33    28.679354     4.396971
5213.94    21.337383     6.876855
5214.56    19.193052     5.689596
5215.17    24.058905     2.829979
5215.79    27.258202     3.897164
5216.40    20.489536     3.864862
5217.01    14.080305     5.088667
5217.63    16.952387     5.687808
5218.24    24.029770     2.977787
5218.86    23.350214     1.807725
5219.47    24.247227     3.240469
5220.09    26.838360     3.881576
5220.70    29.584288     2.953572
5221.32    33.955696     3.074885
5221.93    30.274004     2.050887
5222.54    27.342220     3.055673
5223.16    26.185892     5.326080
5223.77    22.066851     5.052886
5224.39    23.644630     4.080839
5225.00    22.390541     4.437910
5225.62    21.579966     5.102656
5226.23    21.654390     5.001503
5226.85    12.844653     5.085549
5227.46    15.935018     4.321106
5228.07    18.223492     4.153566
5228.69    15.180568     5.181438
5229.30    17.532572     5.944963
5229.92     8.969242     5.802816
5230.53    22.678673     3.111018
5231.15    38.115124     2.639754
5231.76    24.189442     5.987454
5232.37    23.502277     3.680830
5232.99    21.363117     3.656820
5233.60    22.150145     5.275246
5234.22    27.911322     3.777572
5234.83    20.924803     1.228729
5235.45    22.551598     1.544027
5236.06    24.719978     1.809823
5236.68    20.188395     2.478826
5237.29    19.507910     5.845484
5237.90    26.641048     4.444175
5238.52    28.874659     1.427235
5239.13    23.040052     1.427917
5239.75    18.027561     3.965840
5240.36    18.476133     4.913135
5240.98    14.265317     5.198869
5241.59    13.078590     4.546197
5242.21    16.942223     4.091370
5242.82    12.374393     5.985988
5243.43    15.922691     3.840601
5244.05    22.206585     1.249719
5244.66    21.362514     2.403589
5245.28    17.162127     4.848575
5245.89    19.326841     4.524315
5246.51    21.766388     3.746590
5247.12    18.685303     4.161205
5247.74    14.958170     4.063133
5248.35    19.683907     2.121043
5248.96    20.063139     3.451400
5249.58    17.857960     5.003582
5250.19    17.898602     4.005889
5250.81    13.031582     5.087043
5251.42    11.739491     3.072246
5252.04    14.131454     2.571386
5252.65    20.196667     3.827009
5253.27    28.966417     0.984024
5253.88    22.693974     4.403413
5254.49    29.038734     5.038267
5255.11    34.688694     1.769018
5255.72    12.947033     3.716911
5256.34    21.135464     5.644946
5256.95    23.848743     6.097633
5257.57    20.431541     4.071352
5258.18    29.975204     1.023475
5258.79    20.070980     2.381430
5259.41    13.468451     3.190295
5260.02    15.945287     3.189319
5260.64    16.985262     5.132164
5261.25    15.538807     7.263652
5261.87    14.210413     3.947984
5262.48    19.500633     2.300784
5263.10    30.120773     5.238432
5263.71    34.550564     5.225609
5264.32    27.544710     3.903347
5264.94    23.506712     1.936023
5265.55    23.342976     1.116668
5266.17    18.135700     2.838455
5266.78    21.014633     3.126432
5267.40    16.222311     3.081318
5268.01    11.987732     2.751222
5268.63    23.435331     1.097345
5269.24    26.318476     0.022198
5269.85    21.898254     0.434326
5270.47    18.374338     1.094848
5271.08    21.017433     0.999921
5271.70    29.394585     1.512888
5272.31    30.326637     3.493163
5272.93    24.973324     3.368475
5273.54    21.960554     0.927773
5274.16    23.946871     1.614547
5274.77    28.397192     2.782378
5275.38    29.896782     3.022018
5276.00    23.794605     4.347128
5276.61    13.107391     7.117287
5277.23    13.215599     3.386995
5277.84    18.014936     0.487147
5278.46    21.825378     2.353848
5279.07    26.617016     3.126551
5279.69    27.419336     1.418803
5280.30    30.201563     1.666761
5280.91    31.285940     3.048533
5281.53    24.511309     2.065772
5282.14    22.430326     2.385741
5282.76    24.127157     4.066728
5283.37    24.964592     5.072377
5283.99    24.029360     4.078477
5284.60    23.582418     2.272075
5285.21    20.817730     2.522530
5285.83    16.957510     4.802332
5286.44    17.005192     5.998882
5287.06    22.187542     3.706683
5287.67    21.533342     2.590941
5288.29    20.695143     3.261256
5288.90    25.145588     2.930900
5289.52    25.087378     1.050273
5290.13    20.094305     2.580019
5290.74    20.879824     4.130587
5291.36    29.695787     2.903281
5291.97    33.059135     2.195822
5292.59    24.367481     1.154590
5293.20    20.243410     1.515353
5293.82    25.423929     3.118085
5294.43    25.933619     3.099947
5295.05    27.903498     2.554320
5295.66    31.982107     1.243809
5296.27    33.986305     1.326809
5296.89    32.242798     4.644804
5297.50    31.649696     4.794586
5298.12    29.126253     3.387991
5298.73    24.113266     2.990480
5299.35    21.121735     3.029215
5299.96    21.832506     2.727030
5300.58    24.608412     3.987790
5301.19    27.624443     4.848169
5301.80    29.077394     3.088455
5302.42    27.183981     3.640137
5303.03    28.630367     3.731430
5303.65    31.043713     2.927481
5304.26    29.102459     3.025854
5304.88    29.162575     2.212399
5305.49    27.560461     2.270805
5306.11    26.087578     3.211451
5306.72    27.064129     3.940305
5307.33    23.146074     5.027046
5307.95    18.509939     4.035577
5308.56    22.646223     3.045957
5309.18    31.918083     3.994005
5309.79    27.434662     3.192612
5310.41    28.272057     3.478343
5311.02    32.078457     3.836564
5311.63    28.065092     2.996257
5312.25    26.262110     4.028852
5312.86    25.124393     2.649767
5313.48    23.537416     2.827393
5314.09    23.995752     5.999497
5314.71    28.056177     3.114653
5315.32    28.971918     1.431051
5315.94    27.759737     2.245874
5316.55    25.948547     3.015069
5317.16    20.950001     4.650719
5317.78    25.893000     4.935983
5318.39    31.648115     3.251036
5319.01    27.896072     2.009833
5319.62    24.517252     3.674394
5320.24    23.795738     3.496836
5320.85    26.313799     3.337158
5321.47    30.073303     5.026832
5322.08    29.075825     4.959814
5322.69    19.957836     5.736134
5323.31    21.540194     5.494284
5323.92    33.070744     4.003791
5324.54    25.601799     5.628161
5325.15    27.622456     5.485884
5325.77    31.586382     3.037186
5326.38    25.880217     2.040604
5327.00    26.724075     4.480148
5327.61    25.315098     4.762855
5328.22    22.285635     3.864819
5328.84    25.283354     3.990606
5329.45    33.892708     3.227355
5330.07    32.031300     2.964526
5330.68    22.658974     5.210245
5331.30    20.165459     8.030593
5331.91    28.615477     6.210248
5332.53    27.067789     2.059678
5333.14    18.023226     1.692446
5333.75    17.200829     3.985226
5334.37    26.770969     1.720675
5334.98    24.414145     6.336836
5335.60    24.570080     9.871746
5336.21    34.030693     4.883537
5336.83    26.372713     2.248509
5337.44    24.524691     1.821276
5338.05    29.147837     2.205090
5338.67    28.974302     3.012342
5339.28    27.538260     3.807946
5339.90    30.741335     4.205717
5340.51    28.554220     3.701144
5341.13    20.999512     3.000138
5341.74    27.085917     3.764563
5342.36    23.216431     4.001846
5342.97    18.484377     4.224339
5343.58    23.993166     4.998754
5344.20    19.354227     4.320440
5344.81    24.607910     3.643991
5345.43    33.168167     2.434984
5346.04    31.063332     0.995750
5346.66    30.631498     2.510408
5347.27    27.166977     2.776093
5347.89    27.487469     1.879083
5348.50    33.081367     2.003249
5349.11    24.300655     1.777416
5349.73    21.010117     3.033003
5350.34    26.188046     3.913165
5350.96    28.818508     2.985324
5351.57    30.834984     4.134874
5352.19    25.994595     2.211187
5352.80    18.874678     1.781144
5353.42    21.129232     6.828396
5354.03    31.550526     4.472403
5354.64    24.890629     3.188690
5355.26    16.924612     5.258332
5355.87    30.971397     5.044811
5356.49    29.107002     5.081954
5357.10    29.418041     4.511710
5357.72    31.953783     4.101816
5358.33    20.828709     5.027052
5358.95    23.368160     3.916716
5359.56    21.744467     5.549995
5360.17    15.044863     7.944794
5360.79    22.677988     4.657231
5361.40    25.322559     2.710612
5362.02    25.857227     3.683595
5362.63    30.736235     3.759975
5363.25    35.640099     0.486778
5363.86    34.794827     0.159283
5364.47    34.715508     1.429915
5365.09    34.568481     3.304586
5365.70    26.356792     6.903490
5366.32    26.179249     4.300000
5366.93    32.377121     1.966966
5367.55    34.963497     4.055815
5368.16    31.390446     3.383726
5368.78    27.783716     2.684618
5369.39    29.284344     3.324871
5370.00    33.007385     4.000381
5370.62    30.465099     3.357286
5371.23    26.891064     2.402386
5371.85    26.060640     1.907782
5372.46    27.898304     1.987510
5373.08    31.790039     2.603654
5373.69    38.057983     3.827556
5374.31    39.014393     5.438106
5374.92    32.327442     6.079785
5375.53    31.729925     3.913767
5376.15    27.082422     2.642505
5376.76    21.861738     3.098966
5377.38    25.635817     3.801150
5377.99    26.052979     5.728855
5378.61    30.638577     5.071326
5379.22    36.089981     2.807081
5379.84    32.367741     2.980118
5380.45    34.101681     2.408811
5381.06    36.077633     2.021865
5381.68    31.104139     3.203556
5382.29    24.314358     4.834652
5382.91    27.484331     4.648403
5383.52    29.294703     3.665710
5384.14    26.029665     4.099502
5384.75    30.205610     5.916043
5385.37    29.910709     4.799461
5385.98    32.378811     4.455134
5386.59    38.999054     5.994953
5387.21    32.211105     2.959175
5387.82    30.347589     2.022191
5388.44    33.370235     5.160254
5389.05    31.184156     7.972416
5389.67    27.882458     6.600412
5390.28    26.541229     6.248808
5390.89    27.288292     6.948606
5391.51    29.574327     5.265512
5392.12    34.122181     3.247949
5392.74    37.045811     3.524307
5393.35    35.343323     3.738740
5393.97    32.601933     1.212608
5394.58    38.417358     1.931374
5395.20    37.122864     3.404511
5395.81    28.566612     2.890541
5396.42    29.857740     2.037243
5397.04    27.160967     2.657590
5397.65    25.449558     5.217168
5398.27    31.313763     6.979799
5398.88    36.340778     4.671618
5399.50    31.316484     3.769968
5400.11    26.886322     3.822891
5400.73    29.973890     3.001943
5401.34    27.415432     4.112313
5401.95    25.083527     6.597178
5402.57    24.878075     8.169944
5403.18    25.632896     7.211709
5403.80    31.865704     4.747545
5404.41    37.236565     3.909766
5405.03    34.797756     3.818419
5405.64    28.768850     2.170696
5406.26    36.210728     2.076314
5406.87    35.837696     1.353333
5407.48    24.216442     1.250376
5408.10    24.729799     4.742125
5408.71    29.906557     2.900476
5409.33    34.851299     1.088708
5409.94    36.971031     3.020887
5410.56    34.289307     1.690984
5411.17    36.030476     0.194558
5411.79    39.646584     0.038424
5412.40    38.191628     1.801930
5413.01    33.864174     6.453094
5413.63    33.513561     4.781952
5414.24    29.991640     0.685447
5414.86    21.696070     2.684562
5415.47    33.278374     3.841822
5416.09    35.189266     4.393436
5416.70    24.280600     5.007999
5417.31    26.590332     4.858533
5417.93    25.124851     6.089527
5418.54    30.636881     4.766670
5419.16    43.352448     1.993570
5419.77    40.455811     4.398856
5420.39    33.097622     4.449365
5421.00    27.002840     2.585748
5421.62    22.101250     2.956134
5422.23    21.817579     4.621248
5422.84    29.733952     4.814749
5423.46    33.142620     3.786292
5424.07    24.595295     3.102289
5424.69    26.144997     2.168189
5425.30    30.664423     2.293995
5425.92    30.927383     3.041842
5426.53    29.008537     3.536003
5427.15    23.358120     7.033178
5427.76    26.224464     9.399508
5428.37    34.036983     7.876204
5428.99    29.083998     5.607383
5429.60    35.800282     4.063963
5430.22    41.366444     4.351307
5430.83    34.081020     5.949803
5431.45    39.484646     6.277566
5432.06    41.277958     5.313464
5432.68    32.759830     3.550195
5433.29    26.016953     2.042147
5433.90    31.447313     2.919315
5434.52    38.870388     5.051548
5435.13    38.476913     5.962646
5435.75    33.314842     4.468499
5436.36    36.434677     2.790415
5436.98    43.183403     1.536473
5437.59    43.928268     1.005795
5438.21    38.485107     1.800762
5438.82    36.411896     1.919764
5439.43    34.994717     2.328128
5440.05    31.051455     3.919094
5440.66    32.877644     4.072964
5441.28    27.013599     4.167197
5441.89    24.468342     3.745996
5442.51    38.282860     2.690914
5443.12    30.070486     6.427286
5443.73    25.757143     7.237186
5444.35    37.528305     2.729386
5444.96    35.204895     1.028248
5445.58    23.213470     1.277484
5446.19    20.268961     2.542797
5446.81    28.821915     4.889635
5447.42    26.381567     7.922223
5448.04    18.731117     9.944409
5448.65    24.428238     8.101720
5449.26    43.629433     3.352535
5449.88    39.709583     3.858592
5450.49    26.773899     5.207553
5451.11    24.293968     3.805711
5451.72    30.971331     2.237259
5452.34    37.092411     1.861395
5452.95    39.510986     2.051624
5453.57    38.039536     2.979267
5454.18    32.560135     6.011330
5454.79    30.471003     7.602609
5455.41    30.919401     6.595385
5456.02    31.473831     4.332093
5456.64    38.051105     2.083816
5457.25    38.590763     3.101639
5457.87    35.119869     6.320180
5458.48    40.175800     7.195514
5459.10    39.896538     5.958242
5459.71    40.260105     6.980357
5460.32    45.007847    10.005713
5460.94    41.307190     9.981066
5461.55    31.676262    15.507433
5462.17    28.766598    20.011665
5462.78    36.354790    14.728103
5463.40    36.451977    10.527463
5464.01    28.387276    10.304804
5464.63    25.651907    10.946177
5465.24    35.599735     9.942495
5465.85    34.326775    11.442246
5466.47    26.638464    11.191221
5467.08    25.006041     7.992155
5467.70    27.408419     8.186899
5468.31    27.647659     6.137505
5468.93    27.228956     3.950477
5469.54    29.690605     5.806004
5470.16    31.979837     5.893791
5470.77    37.147015     3.875892
5471.38    39.603264     3.131098
5472.00    31.168716     5.536478
5472.61    25.833858     5.955752
5473.23    26.754749     4.417225
5473.84    27.031191     3.990751
5474.46    22.346397     5.753706
5475.07    29.591698     5.093846
5475.68    36.804268     4.177643
5476.30    29.469879     5.958799
5476.91    32.555317     4.282627
5477.53    30.990061     2.663519
5478.14    22.708830     4.258072
5478.76    26.502672     6.733348
5479.37    29.845221     6.295188
5479.99    34.399830     4.518242
5480.60    40.026611     4.001826
5481.21    33.247280     4.400281
5481.83    28.592806     6.332366
5482.44    30.389362     8.201413
5483.06    31.738451     7.431104
5483.67    33.455997     4.345149
5484.29    33.764400     2.782577
5484.90    30.699301     4.113319
5485.52    25.312426     5.690928
5486.13    23.158194     6.208247
5486.74    28.538937     5.851644
5487.36    35.905781     5.085854
5487.97    30.771835     4.622171
5488.59    24.399851     9.502400
5489.20    21.390181    12.604541
5489.82    19.693756     5.325161
5490.43    31.310345     3.263334
5491.05    40.686729     3.697325
5491.66    34.866791     1.992743
5492.27    24.657768     3.176089
5492.89    24.915577     5.077768
5493.50    31.114265     4.500912
5494.12    33.558636     2.100596
5494.73    37.715408     3.166250
5495.35    35.454021     3.952022
5495.96    31.131079     2.947912
5496.58    37.069984     3.543005
5497.19    35.160919     5.341413
5497.80    28.138092     5.849341
5498.42    26.012341     4.993761
5499.03    27.201103     6.296071
5499.65    32.629227     7.438482
5500.26    38.822159     8.262403
5500.88    39.647129     9.270276
5501.49    34.824272     6.023820
5502.10    33.801315     3.706594
5502.72    40.201714     3.966280
5503.33    45.238205     1.425935
5503.95    41.165554     2.124075
5504.56    35.217583     4.161959
5505.18    38.819336     3.122941
5505.79    49.042667     2.946953
5506.41    44.895443     2.726340
5507.02    32.516808     1.957784
5507.63    36.556213     2.477275
5508.25    37.550220     4.855448
5508.86    34.217468     5.910660
5509.48    32.217041     4.106512
5510.09    28.408520     2.994127
5510.71    37.124481     3.365871
5511.32    45.771767     4.054355
5511.94    36.191040     3.997345
5512.55    38.551899     4.351376
5513.16    40.891823     5.586073
5513.78    31.932142     7.008490
5514.39    28.722435     7.670946
5515.01    34.129971     8.802730
5515.62    34.513256     8.621119
5516.24    24.601645     5.503449
5516.85    28.760889     3.363322
5517.47    36.587894     5.773858
5518.08    39.215221     7.849898
5518.69    43.603813     2.297315
5519.31    46.495140     1.576479
5519.92    39.344383     4.584415
5520.54    24.873728     4.974524
5521.15    23.095924     5.695541
5521.77    26.272301     5.981786
5522.38    25.731401     6.097369
5523.00    23.221678     7.058969
5523.61    24.634924     5.769214
5524.22    32.344761     5.321176
5524.84    41.727299     6.985375
5525.45    43.788952     5.360006
5526.07    41.613449     2.370780
5526.68    39.841793     0.939787
5527.30    39.318638     1.731405
5527.91    36.584465     2.773304
5528.52    32.381790     2.938602
5529.14    32.016693     3.003263
5529.75    38.754417     4.115852
5530.37    37.767879     2.593819
5530.98    34.104309     1.066191
5531.60    40.517574     3.519622
5532.21    47.487343     5.565888
5532.83    43.112385     6.089328
5533.44    31.627962     5.998754
5534.05    29.861221     6.474616
5534.67    33.806786     8.433867
5535.28    36.105488     8.518928
5535.90    34.293026     5.291137
5536.51    33.072254     4.720834
5537.13    35.952774     4.922545
5537.74    36.569908     5.107694
5538.36    28.213808     6.875165
5538.97    29.922298     5.774355
5539.58    33.959469     3.584433
5540.20    30.137697     3.877748
5540.81    32.730698     5.451128
5541.43    36.138802     6.112697
5542.04    34.595623     6.036572
5542.66    31.204052     6.283992
5543.27    32.862301     4.371959
5543.89    35.218887     4.966660
5544.50    31.448187     8.904958
5545.11    23.495125     7.680882
5545.73    24.068022     7.653259
5546.34    30.641308     8.890661
5546.96    31.225124     6.400523
5547.57    30.674694     6.433379
5548.19    29.117046     6.662577
5548.80    26.081964     4.095572
5549.42    25.263447     2.136896
5550.03    28.005007     2.660045
5550.64    32.862839     5.648714
5551.26    36.047554     8.788871
5551.87    33.619087     7.803361
5552.49    32.247330     5.128889
5553.10    33.031761     4.977124
5553.72    27.928017     7.635679
5554.33    29.507874     6.740337
5554.94    37.311058     5.159089
5555.56    40.215580     7.788415
5556.17    36.991440     6.464683
5556.79    32.430420     4.916514
5557.40    32.016644     6.002128
5558.02    37.838814     5.275585
5558.63    45.615795     5.247980
5559.25    47.451256     6.116086
5559.86    42.375443     6.066285
5560.47    43.726479     5.793831
5561.09    38.901859     6.452178
5561.70    26.872459     8.030066
5562.32    28.277941     8.657490
5562.93    35.429317     5.630030
5563.55    41.019470     2.828047
5564.16    43.139538     4.575873
5564.78    40.028736     6.220572
5565.39    32.259274     5.203415
5566.00    25.943600     4.027283
5566.62    28.377201     6.524323
5567.23    31.776640     5.928550
5567.85    33.387470     3.861784
5568.46    36.235821     4.876794
5569.08    40.810295     4.776777
5569.69    35.897861     5.994253
5570.31    24.795948     9.078235
5570.92    27.175434     9.204095
5571.53    39.025162     4.664947
5572.15    44.847801     3.944231
5572.76    38.725922    15.315865
5573.38    39.669804    34.772343
5573.99    50.445164    67.117111
5574.61    54.712627    109.483055
5575.22    34.435280    150.266388
5575.84    11.504256    195.146194
5576.45    -0.962574    229.497681
5577.06    -3.408659    235.222321
5577.68     3.279056    220.806137
5578.29    26.441986    189.532654
5578.91    49.228676    156.219086
5579.52    40.643311    141.609634
5580.14    33.997173    125.420723
5580.75    36.099529    106.293884
5581.36    30.178516    96.701050
5581.98    16.068712    93.067009
5582.59    22.170036    72.765633
5583.21    47.483208    41.454552
5583.82    52.371498    32.846989
5584.44    35.925480    28.291567
5585.05    21.746515    20.492764
5585.67    27.220142    15.029178
5586.28    35.407295     8.996606
5586.89    36.163696     7.271916
5587.51    32.993382    10.023625
5588.12    35.369385     9.583481
5588.74    34.648357     8.442582
5589.35    30.171509     7.842071
5589.97    28.066572     7.068021
5590.58    29.303537     7.079786
5591.20    37.100052     6.654006
5591.81    44.000183     5.999938
5592.42    35.681568     7.005135
5593.04    30.616232     5.839447
5593.65    36.709534     3.852041
5594.27    42.695278     5.314258
5594.88    32.454056     8.888714
5595.50    26.136826     9.617450
5596.11    31.969238     8.950676
5596.73    28.433933    13.985628
5597.34    32.095341    12.853410
5597.95    36.316021     6.057071
5598.57    25.614632     3.882331
5599.18    25.999523     5.211393
5599.80    32.950245     5.918519
5600.41    34.961750     5.010232
5601.03    35.488277     5.663008
5601.64    33.350525     6.037438
5602.26    28.087906     7.491035
5602.87    24.840502    11.537409
5603.48    34.722801    10.681563
5604.10    42.970119     6.789375
5604.71    40.966427     4.148938
5605.33    45.937592     2.316691
5605.94    50.501400     2.236389
5606.56    47.188377     3.045273
5607.17    38.891460     3.466920
5607.78    34.474930     6.426120
5608.40    29.999533     7.764914
5609.01    28.088037     5.170999
5609.63    45.279499     4.953098
5610.24    47.790768     4.373587
5610.86    30.747458     4.195955
5611.47    25.313820     7.672540
5612.09    29.601402     5.897102
5612.70    37.064007     2.693260
5613.31    40.428558     4.630887
5613.93    32.231468     6.995793
5614.54    24.748028     8.785900
5615.16    26.244957     8.910410
5615.77    31.198709     5.959630
5616.39    31.069235     4.215302
5617.00    30.563059     3.867226
5617.62    36.076721     3.084370
5618.23    39.708961     3.170478
5618.84    39.502670     4.974870
5619.46    34.874317     5.977385
5620.07    26.486599     2.851374
5620.69    26.760695     2.540494
5621.30    31.393234     5.586516
5621.92    31.410633     7.083570
5622.53    37.504047     5.678761
5623.15    40.915154     5.342018
5623.76    37.064049     6.986141
5624.37    37.012722     6.250135
5624.99    35.501511     6.497349
5625.60    31.457745     6.797108
5626.22    29.860519     4.350445
5626.83    31.771320     4.477772
5627.45    37.160538     4.657064
5628.06    41.088047     3.021997
5628.68    35.654255     4.272624
5629.29    32.715805     4.997647
5629.90    36.465199     3.886972
5630.52    38.116440     3.686622
5631.13    31.725485     5.276851
5631.75    32.365452     5.762429
5632.36    44.404610     4.087807
5632.98    39.899414     4.851632
5633.59    30.624187     6.953937
5634.20    31.352306     8.009570
5634.82    39.757103     7.361392
5635.43    42.742374     6.568856
5636.05    38.873230     7.436757
5636.66    36.560978     9.066623
5637.28    42.351200     6.786444
5637.89    44.211121     4.463279
5638.51    38.978222     5.007118
5639.12    38.564854     5.855446
5639.73    35.079136     5.958101
5640.35    33.779396     6.113477
5640.96    41.326706     6.353830
5641.58    38.142914     3.639566
5642.19    31.521376     4.148431
5642.81    33.696442     7.989227
5643.42    41.554901     4.803764
5644.04    47.704567     6.044784
5644.65    51.580036     9.983541
5645.26    53.239548     5.886711
5645.88    38.949169     5.708091
5646.49    28.437241     6.664047
5647.11    35.427105     4.084445
5647.72    35.516888     5.482884
5648.34    36.954807     4.910595
5648.95    42.118114     1.942011
5649.57    39.094303     4.294890
5650.18    33.487244     9.306852
5650.79    32.463036    10.597584
5651.41    38.510899     5.875710
5652.02    47.191986     2.246468
5652.64    49.719913     2.707133
5653.25    42.978706     5.002737
5653.87    34.568321     4.630583
5654.48    37.992554     3.273004
5655.10    46.998802     4.592011
5655.71    46.897530     8.621615
5656.32    42.753349     7.461330
5656.94    40.934307     4.109529
5657.55    41.990597     3.041773
5658.17    39.590904     2.315827
5658.78    30.338230     1.780407
5659.40    24.112362     2.097826
5660.01    31.239201     3.518852
5660.62    32.439693     4.842955
5661.24    29.931934     4.788756
5661.85    31.913166     3.968494
5662.47    30.991211     5.235771
5663.08    35.423290     6.050907
5663.70    44.182011     4.950120
5664.31    42.498009     4.378011
5664.93    31.507187     7.208272
5665.54    28.125643     8.723699
5666.15    40.242508     5.348598
5666.77    41.901409     6.135406
5667.38    40.560638     6.350290
5668.00    43.063160     3.989525
5668.61    36.231609     6.930160
5669.23    28.334421     7.305121
5669.84    27.331503     4.893710
5670.46    32.989399     5.860047
5671.07    39.336437     4.919790
5671.68    40.536331     2.300348
5672.30    35.666740     2.574665
5672.91    31.057264     8.170765
5673.53    32.922867     9.138595
5674.14    35.901314     4.863994
5674.76    29.826546     4.901644
5675.37    28.252562     4.026346
5675.99    33.153809     3.190282
5676.60    34.209457     6.257868
5677.21    24.385103     9.284817
5677.83    28.194889     7.516494
5678.44    46.748703     3.997022
5679.06    43.846161     7.874727
5679.67    34.597218    11.027398
5680.29    31.973989     9.695056
5680.90    34.002975     8.001388
5681.52    37.554516     9.043516
5682.13    37.040508     7.934700
5682.74    32.315083     4.034963
5683.36    32.639748     7.524717
5683.97    37.747967    10.629931
5684.59    42.101746     8.875136
5685.20    41.857162     7.692601
5685.82    43.562550     9.651631
5686.43    41.428230    12.428903
5687.04    32.539146    13.015688
5687.66    36.344864    12.753953
5688.27    39.483368    11.133471
5688.89    35.016888     9.027851
5689.50    38.908951     9.446715
5690.12    37.673946    10.420843
5690.73    31.607201     9.781893
5691.35    32.096565     7.537483
5691.96    29.642769     6.569216
5692.57    30.592859     9.280330
5693.19    40.024757    13.737048
5693.80    44.397209    13.326933
5694.42    42.833164    11.169770
5695.03    41.011642     9.940611
5695.65    43.199512     8.433696
5696.26    44.125660     7.702785
5696.88    42.657459     8.174232
5697.49    40.019268     8.965460
5698.10    34.096256     8.363879
5698.72    32.789307     5.905757
5699.33    40.513916     3.984804
5699.95    49.084190     5.795270
5700.56    47.177559     4.510924
5701.18    39.455334     3.342383
5701.79    39.742485     9.191630
5702.41    44.123184     7.437941
5703.02    44.041584     2.169548
5703.63    38.459171     2.747980
5704.25    38.267120     4.176407
5704.86    35.877838     5.857736
5705.48    30.990231     8.032972
5706.09    34.656971     9.554506
5706.71    35.224236    10.477361
5707.32    31.524487     9.615030
5707.94    31.465111     6.588389
5708.55    34.381542     5.198475
5709.16    36.199131     4.782568
5709.78    35.118622     4.028469
5710.39    35.167992     4.339069
5711.01    43.495316     5.894513
5711.62    53.331459     6.999180
5712.24    51.349934     5.712251
5712.85    48.965172     3.742582
5713.46    45.466820     3.020589
5714.08    38.403969     3.851349
5714.69    40.759563     4.220966
5715.31    39.975243     3.754189
5715.92    33.987644     3.963547
5716.54    40.764385     6.338287
5717.15    40.889584     6.662114
5717.77    34.756657     4.786382
5718.38    40.089069     4.037875
5718.99    49.942688     4.017304
5719.61    48.384705     3.937557
5720.22    36.519409     3.925216
5720.84    41.732933     4.861555
5721.45    48.286575     4.464032
5722.07    44.870758     1.911608
5722.68    41.026062    -0.184037
5723.30    34.780415     1.858005
5723.91    31.030258     5.461102
5724.52    34.460529     6.082932
5725.14    34.312248     5.628483
5725.75    35.091866     4.501803
5726.37    37.289619     3.905660
5726.98    29.312195     6.346374
5727.60    32.657917     6.203183
5728.21    44.358665     3.955287
5728.83    40.537811     5.406944
5729.44    40.236908     6.155174
5730.05    46.299511     4.451916
5730.67    49.017632     2.231152
5731.28    47.050892     2.088720
5731.90    41.639763     3.774418
5732.51    39.854546     5.004271
5733.13    48.853645     4.001937
5733.74    48.103508     5.169532
5734.36    39.431335     6.986462
5734.97    40.917767     5.251183
5735.58    43.063839     5.973840
5736.20    41.132404     6.780875
5736.81    41.757587     4.310637
5737.43    55.327229     3.179324
5738.04    54.768116     2.729098
5738.66    35.798527     3.024434
5739.27    29.674967     5.649183
5739.88    34.956333     4.771465
5740.50    43.311123     3.124597
5741.11    46.957352     6.274180
5741.73    39.093895     7.510863
5742.34    36.195873     6.827062
5742.96    44.620209     6.150149
5743.57    40.719830     4.001829
5744.19    30.235111     2.663120
5744.80    28.329063     3.028722
5745.41    39.883621     3.627836
5746.03    42.588238     4.912714
5746.64    37.263580     6.166199
5747.26    35.092937     6.157778
5747.87    27.510229     5.074017
5748.49    26.904491     3.332676
5749.10    37.481812     2.022321
5749.72    40.367065     2.535501
5750.33    40.134998     3.341592
5750.94    39.818848     5.324369
5751.56    36.600727     9.499977
5752.17    36.650677     8.360619
5752.79    38.019714     4.251160
5753.40    37.015553     3.047324
5754.02    38.407471     3.090467
5754.63    40.825634     5.142706
5755.25    43.841606     7.029707
5755.86    49.090015     3.913006
5756.47    45.027519     3.931657
5757.09    39.085770     5.932289
5757.70    46.165771     2.792805
5758.32    47.629841     2.175444
5758.93    42.822079     4.717121
5759.55    39.538521     6.783472
5760.16    35.805092     7.527077
5760.78    35.907570     6.117561
5761.39    40.990387     4.997910
5762.00    45.321930     7.680307
5762.62    45.789936     6.181290
5763.23    49.253899     2.914070
5763.85    59.746914     4.793684
5764.46    57.296185     3.528904
5765.08    45.651592     4.121768
5765.69    39.133789     9.676117
5766.30    41.496777     8.263606
5766.92    42.337856     5.027400
5767.53    36.841167     7.131304
5768.15    30.958597    13.940365
5768.76    26.669628    16.759901
5769.38    24.919044    14.507915
5769.99    26.243107    12.263642
5770.61    29.848806    12.144341
5771.22    32.553986    13.459166
5771.83    35.354580    13.276543
5772.45    44.344975     8.610456
5773.06    48.276844     4.691677
5773.68    41.527359     5.102925
5774.29    32.404926     8.033296
5774.91    32.980160     9.714731
5775.52    41.859066     8.565567
5776.14    47.990990     6.225766
5776.75    43.762497     6.842335
5777.36    37.537029    10.426947
5777.98    36.103146    13.029293
5778.59    34.268215    10.062537
5779.21    34.892006     6.856813
5779.82    37.039871     7.103868
5780.44    36.118259     8.836605
5781.05    37.104294     8.150570
5781.67    39.271877     7.022422
5782.28    37.911564     8.618309
5782.89    32.813427     9.692842
5783.51    36.203442     7.997213
5784.12    50.237328     5.090061
5784.74    57.024220     5.607548
5785.35    49.106121     8.767715
5785.97    41.112423     9.837771
5786.58    49.629837     5.915964
5787.20    46.024879     5.508134
5787.81    37.337387     8.727691
5788.42    39.397285    10.793229
5789.04    31.642633    11.273800
5789.65    27.672813    10.690329
5790.27    35.707493     9.106406
5790.88    37.527271     6.539414
5791.50    33.677856     6.541926
5792.11    32.235287     9.297372
5792.73    37.063133    11.582860
5793.34    37.170895    12.279246
5793.95    38.297215    11.852890
5794.57    44.868240    11.144043
5795.18    39.460293    10.331789
5795.80    34.737114     9.925047
5796.41    39.829945     9.997756
5797.03    42.447910     9.680468
5797.64    36.968990     7.589764
5798.25    30.788534     4.736089
5798.87    33.256943     4.242616
5799.48    33.436279     8.139019
5800.10    33.776951    11.224417
5800.71    37.880486     9.384469
5801.33    34.988522     7.959613
5801.94    33.549141     8.272354
5802.56    37.932491     8.038311
5803.17    39.432537     5.262812
5803.78    41.427460     6.646031
5804.40    40.245495     8.846299
5805.01    31.472843     4.762190
5805.63    31.650345     5.087680
5806.24    36.969048     6.985895
5806.86    37.889164     5.124220
5807.47    39.377468     6.112039
5808.09    39.732494     6.852066
5808.70    38.014923     5.018935
5809.31    37.607410     4.006437
5809.93    38.741409     4.353785
5810.54    37.446941     6.405650
5811.16    32.881634     9.533738
5811.77    37.913231     9.454575
5812.39    45.076603     5.731114
5813.00    42.861305     2.841109
5813.62    36.693054     6.866706
5814.23    35.819569     8.594007
5814.84    40.982773     4.016684
5815.46    43.708992     1.541053
5816.07    43.940800     3.992646
5816.69    42.751339     7.171307
5817.30    41.108490     6.288078
5817.92    42.187729     6.280320
5818.53    48.323372     7.113657
5819.15    54.911270     6.997221
5819.76    50.142082     7.224797
5820.37    44.631950     6.420710
5820.99    42.994366     7.005616
5821.60    37.428059    12.931538
5822.22    40.624794    11.811012
5822.83    47.246696     6.745571
5823.45    42.272263     9.127430
5824.06    35.636082    10.479906
5824.67    38.085564     8.053559
5825.29    45.898403     5.161626
5825.90    39.078732     5.540664
5826.52    30.673214     5.679627
5827.13    31.009029     3.993906
5827.75    33.345318     3.676844
5828.36    37.975319     4.772639
5828.98    39.623550     7.562649
5829.59    35.579384    10.902100
5830.20    42.708794     8.791156
5830.82    51.096752     5.500757
5831.43    49.259384     5.909033
5832.05    50.424755     5.771316
5832.66    57.645657     4.227393
5833.28    57.923988     4.013577
5833.89    38.713051     7.760665
5834.51    37.934238     9.045225
5835.12    50.902725     6.576724
5835.73    47.456333     4.836811
5836.35    45.737598     6.800449
5836.96    48.849060     7.628885
5837.58    49.332584     4.361213
5838.19    44.935650     3.419746
5838.81    40.491470     4.576856
5839.42    40.010212     6.009687
5840.04    42.424355     7.439741
5840.65    42.689636     8.593913
5841.26    44.927502     7.593930
5841.88    52.486248     3.801255
5842.49    48.668762     2.569612
5843.11    44.140831     4.938987
5843.72    50.244629     7.104150
5844.34    51.600777     4.180695
5844.95    43.324944     3.839887
5845.57    33.978828     7.004210
5846.18    36.068520     5.293081
5846.79    39.405098     6.673639
5847.41    45.730499     8.828395
5848.02    57.765991     4.773926
5848.64    48.700844     4.788466
5849.25    38.711700     7.552869
5849.87    45.680023     7.261487
5850.48    40.447121     4.891258
5851.09    38.352276     4.095958
5851.71    45.005558     6.007411
5852.32    41.873856     8.221797
5852.94    47.242977     9.778060
5853.55    53.612354     9.890292
5854.17    42.562447     8.427133
5854.78    40.391651     7.297898
5855.40    50.201115     6.945820
5856.01    56.428955     6.971242
5856.62    46.902866     7.165148
5857.24    42.727192     6.620130
5857.85    49.999283     5.999949
5858.47    48.632076     6.918026
5859.08    46.101761     6.364744
5859.70    44.525810     7.639583
5860.31    41.406517    13.489335
5860.93    47.341240    10.852015
5861.54    48.086323     4.949039
5862.15    36.016323     4.832261
5862.77    37.385757     5.697181
5863.38    46.823013     6.216266
5864.00    50.012882     6.994927
5864.61    43.271301     8.383305
5865.23    41.458385     9.636203
5865.84    45.323112     9.971684
5866.46    44.205540     9.762272
5867.07    39.424194    11.456908
5867.68    36.951958    13.261834
5868.30    40.229046    11.655622
5868.91    44.664200     6.332441
5869.53    40.909599     6.261814
5870.14    34.981533    10.004977
5870.76    44.508690     5.408798
5871.37    50.623131     5.565016
5871.99    46.209465    10.276208
5872.60    40.917309     8.757915
5873.21    39.631287     7.219085
5873.83    41.722652     6.813179
5874.44    45.272850     6.723037
5875.06    50.026161     9.790028
5875.67    49.930370    10.513197
5876.29    46.023052     7.048886
5876.90    47.657288     5.168869
5877.51    49.595715     5.202928
5878.13    44.875675     7.460622
5878.74    36.568256    10.925474
5879.36    45.848835     8.442218
5879.97    55.242718     4.420789
5880.59    45.752159     4.838424
5881.20    38.862926     5.207116
5881.82    38.146019     4.853961
5882.43    42.803139     4.984385
5883.04    52.353252     6.257403
5883.66    44.209160     7.848288
5884.27    31.964054     9.134398
5884.89    44.581905     9.924246
5885.50    53.089603     9.682197
5886.12    53.049847     6.976298
5886.73    50.603085     5.250993
5887.35    35.985413    14.229672
5887.96    26.461164    18.941200
5888.57    31.783316    13.136627
5889.19    37.722103    12.503725
5889.80    35.632980    19.636881
5890.42    30.815977    24.994509
5891.03    33.014687    19.772987
5891.65    34.958969    16.703949
5892.26    36.793800    16.924868
5892.88    39.265553    16.705502
5893.49    34.514687    19.856209
5894.10    32.601765    20.226881
5894.72    37.852741    17.028484
5895.33    39.063145    18.373144
5895.95    36.150429    14.862896
5896.56    33.991684     8.741574
5897.18    35.631104    10.834244
5897.79    35.181782    12.977741
5898.41    30.557539     9.564757
5899.02    26.702641     3.485767
5899.63    33.398636     4.320226
5900.25    45.687927     6.013982
5900.86    51.122326     4.971403
5901.48    43.007805     7.408290
5902.09    44.227013     6.844872
5902.71    49.642033     3.901395
5903.32    38.781654     5.340001
5903.93    41.992043     6.437170
5904.55    52.162579     5.798059
5905.16    50.340687     4.436406
5905.78    51.321404     1.919527
5906.39    50.810543     3.535496
5907.01    45.209347     9.748159
5907.62    43.528107    12.146169
5908.24    44.780819     8.192194
5908.85    46.078003     3.914420
5909.46    47.097572     6.234132
5910.08    50.381168     6.851280
5910.69    44.992130     7.776395
5911.31    32.515388    12.520996
5911.92    47.982330    11.937086
5912.54    54.271992     9.380645
5913.15    35.568867     9.906292
5913.77    38.775539    11.465607
5914.38    46.604843     8.971519
5914.99    45.851982     6.045347
5915.61    43.606091     9.814919
5916.22    37.366936    11.174598
5916.84    32.674366     9.848232
5917.45    34.615173    10.031543
5918.07    35.535370     9.094765
5918.68    41.455154     7.425470
5919.30    50.800446     6.081031
5919.91    47.943512     4.680809
5920.52    46.942722     3.372688
5921.14    53.546173     3.043057
5921.75    55.760433     4.826516
5922.37    42.479660     8.508385
5922.98    33.265182     8.086271
5923.60    44.189190     2.372214
5924.21    45.401905     5.015585
5924.83    36.690735     8.090031
5925.44    31.920551     5.145106
5926.05    38.245174     4.873289
5926.67    46.733208     4.416007
5927.28    46.501240     4.150567
5927.90    36.330532     7.968320
5928.51    34.996223     9.174534
5929.13    42.668404     9.387343
5929.74    47.066025    12.529886
5930.35    44.020000    12.867899
5930.97    42.370995     9.512010
5931.58    44.150677     6.089240
5932.20    38.568810     6.688708
5932.81    39.139072     6.280594
5933.43    47.461521     5.059344
5934.04    49.717422     7.967750
5934.66    46.630291     9.591613
5935.27    43.719013     8.788877
5935.88    44.584080     8.067254
5936.50    46.530838     7.842361
5937.11    48.847477     6.035452
5937.73    45.850792     5.643752
5938.34    30.634796    13.723756
5938.96    34.150425    13.901547
5939.57    50.379490     5.642741
5940.19    45.073975     5.195459
5940.80    49.822155     6.756631
5941.41    57.908600     5.455294
5942.03    48.098061     2.990364
5942.64    44.089214     5.227736
5943.26    49.248772     6.933054
5943.87    51.430786     5.898414
5944.49    40.464294     9.820452
5945.10    36.312618    12.722528
5945.72    41.079197    10.791010
5946.33    37.087479     7.557027
5946.94    33.208107     7.456454
5947.56    36.234871     9.284454
5948.17    41.948879     9.896030
5948.79    37.584675    10.406968
5949.40    36.471760     9.248855
5950.02    45.484951     7.875655
5950.63    46.712776    11.423671
5951.25    43.513023     9.826010
5951.86    43.124428     3.810990
5952.47    45.565002     5.710292
5953.09    40.739983    12.433784
5953.70    36.047733    14.504198
5954.32    41.667221     8.226862
5954.93    44.912762     5.580399
5955.55    42.919449     6.117307
5956.16    38.420910     6.828269
5956.77    33.229259    10.205034
5957.39    29.642561    12.973536
5958.00    33.643654    11.786707
5958.62    46.694450     7.214268
5959.23    45.964867     5.667938
5959.85    38.385887     7.377176
5960.46    43.034081     8.781327
5961.08    50.816322     9.722932
5961.69    45.989254    12.125339
5962.30    31.600697    13.280034
5962.92    32.632244     6.756266
5963.53    34.694065     7.100990
5964.15    33.150562    14.234033
5964.76    39.718369    12.696718
5965.38    43.214725     8.643929
5965.99    41.628929     8.403939
5966.61    37.892464    11.003180
5967.22    27.123646     8.313112
5967.83    28.659897     5.912537
5968.45    44.368774     7.900159
5969.06    42.511585     7.547786
5969.68    41.317764     6.937640
5970.29    45.996830     6.952414
5970.91    40.744186     5.892553
5971.52    39.461704     7.411952
5972.14    45.414921     8.959222
5972.75    48.797997     6.630652
5973.36    40.127361     4.576589
5973.98    30.919027     6.025286
5974.59    29.149967     9.795411
5975.21    25.864256    10.437428
5975.82    26.058073     6.582546
5976.44    32.571938     2.948989
5977.05    38.674561     5.911401
5977.67    31.690243    11.798561
5978.28    25.228567    13.709419
5978.89    34.162605     9.687514
5979.51    37.719814     8.576600
5980.12    30.428833     8.838403
5980.74    21.288660     7.139335
5981.35    22.799738     5.429878
5981.97    29.106646     4.983924
5982.58    33.174179     6.137673
5983.19    32.657185     7.871828
5983.81    26.427696     7.073536
5984.42    24.964325     4.444068
5985.04    32.516724     3.608285
5985.65    28.972523     7.116881
5986.27    29.503616     8.885365
5986.88    39.771439     7.023023
5987.50    35.096386     8.500337
5988.11    29.337236     8.146504
5988.72    32.462566     5.958594
5989.34    38.439537     6.988902
5989.95    41.157009     5.468953
5990.57    37.592731     4.243840
5991.18    32.046158     7.476975
5991.80    37.012577     8.435390
5992.41    45.772621     7.887718
5993.03    47.211975     7.110150
5993.64    39.029560     4.030600
5994.25    29.606907     3.117909
5994.87    28.452650     5.204121
5995.48    37.845387     6.292066
5996.10    44.471081     4.412475
5996.71    43.029526     3.075259
5997.33    39.671143     5.450588
5997.94    45.481087     7.570987
5998.56    46.344070     5.600791
5999.17    39.090385     2.946483
5999.78    42.853214     7.858267
6000.40    44.429653    10.106010
6001.01    39.547714     7.865578
6001.63    37.788719     8.053024
6002.24    39.256039     6.904775
6002.86    41.493214     6.204967
6003.47    44.169273     8.603744
6004.09    49.949490     9.756728
6004.70    49.017708     7.889616
6005.31    43.016190     5.040332
6005.93    47.606415     5.168262
6006.54    46.561104     7.170602
6007.16    39.533497     7.898654
6007.77    42.230911     5.688827
6008.39    52.626205     4.171376
6009.00    52.607162     3.995304
6009.61    36.159096     4.698673
6010.23    29.841410     7.245390
6010.84    37.239059     7.473927
6011.46    44.993130     5.012424
6012.07    39.872704     4.892494
6012.69    39.574562     4.625883
6013.30    44.140568     4.022367
6013.92    39.916431     5.361960
6014.53    34.108585     7.586363
6015.14    33.695435     7.534792
6015.76    39.902309     4.408612
6016.37    46.849388     2.617189
6016.99    43.827488     4.031755
6017.60    32.898327     7.027521
6018.22    29.512545     8.139061
6018.83    35.214138     7.380704
6019.45    40.071827     5.712918
6020.06    37.691387     4.213734
6020.67    42.998058     4.182331
6021.29    44.593132     7.463557
6021.90    36.323498    11.069361
6022.52    40.994194     6.751183
6023.13    48.462162     3.408804
6023.75    47.871658     3.969931
6024.36    41.969513     1.892558
6024.98    34.492321     4.671505
6025.59    30.943647     9.443423
6026.20    35.712830     7.973171
6026.82    46.310677     3.845774
6027.43    48.967419     3.884926
6028.05    42.219707     7.858205
6028.66    45.027637     6.640349
6029.28    43.178650     7.020269
6029.89    33.575703    10.066412
6030.51    33.000713     8.318521
6031.12    44.377018     4.841530
6031.73    52.042198     2.749634
6032.35    44.618668     3.404072
6032.96    40.810009     7.143498
6033.58    40.912205     9.060454
6034.19    42.635254     6.256993
6034.81    50.584427     2.519706
6035.42    48.814529     3.050061
6036.03    39.532780     6.161878
6036.65    41.375107     6.183727
6037.26    50.025345     6.079895
6037.88    53.749176     5.729681
6038.49    46.078392     4.154902
6039.11    34.772778     4.501950
6039.72    28.759081     7.347078
6040.34    29.923147     9.978343
6040.95    32.167744     9.138874
6041.56    33.700420    10.014747
6042.18    32.630009    10.747376
6042.79    29.633127     6.659723
6043.41    34.373806     7.064125
6044.02    39.429020     7.249300
6044.64    40.071098     2.397077
6045.25    51.235729     3.088149
6045.87    54.914024     5.916077
6046.48    46.986328     7.003910
6047.09    48.643528     8.149474
6047.71    49.517097     6.730274
6048.32    43.884880     4.988828
6048.94    38.738739     6.069709
6049.55    43.723915     4.179271
6050.17    44.065125     3.482411
6050.78    34.352730     6.785207
6051.40    38.949951     6.317780
6052.01    40.646366     4.068382
6052.62    32.763161     2.975504
6053.24    32.654991     2.841709
6053.85    40.385197     3.435333
6054.47    44.886246     4.089673
6055.08    38.704418     5.278541
6055.70    32.720554     9.737219
6056.31    28.511078    11.981669
6056.93    27.668446     8.353090
6057.54    37.064728     3.952228
6058.15    47.735184     3.368568
6058.77    49.683102     5.053643
6059.38    42.133888     4.314981
6060.00    39.156570     4.058092
6060.61    41.551254     5.414305
6061.23    42.213654     6.898372
6061.84    39.736366     6.604418
6062.45    34.938015     5.731788
6063.07    31.041143     5.031051
6063.68    31.876108     3.516965
6064.30    34.211372     2.841751
6064.91    36.299255     2.992885
6065.53    38.060154     2.865322
6066.14    36.461056     3.897653
6066.76    35.038071     5.310278
6067.37    38.261250     5.196844
6067.98    44.149433     3.239357
6068.60    45.664608     4.003841
6069.21    41.916321     7.033339
6069.83    40.181019     6.145895
6070.44    43.907520     3.271247
6071.06    46.946098     3.537087
6071.67    44.750912     7.677629
6072.29    49.475571     5.786011
6072.90    52.890358     2.431533
6073.51    49.162693     2.957302
6074.13    49.676189     2.808265
6074.74    45.744297     3.926073
6075.36    39.963715     6.094228
6075.97    44.588074     6.147947
6076.59    45.471264     5.966106
6077.20    44.364136     5.946218
6077.82    47.163197     5.869389
6078.43    43.105110     7.015280
6079.04    46.828350     6.108252
6079.66    57.929737     3.049281
6080.27    50.789223     2.820310
6080.89    43.203369     2.793940
6081.50    40.300339     3.254011
6082.12    35.234341     5.795126
6082.73    43.956856     4.595021
6083.35    47.008308     3.012599
6083.96    30.732038     4.812962
6084.57    24.742796     5.180688
6085.19    27.412230     5.079453
6085.80    30.069803     4.965519
6086.42    31.543282     3.731651
6087.03    32.749168     5.969067
6087.65    32.817638     7.824814
6088.26    32.996479     3.937265
6088.87    40.770508     1.172307
6089.49    47.116051     1.262007
6090.10    47.811665     2.871166
6090.72    52.504856     5.036686
6091.33    46.522091     6.801016
6091.95    33.110207     6.890392
6092.56    32.571991     5.228015
6093.18    42.406258     5.562809
6093.79    49.830193     5.668026
6094.40    46.208408     3.264415
6095.02    38.205135     3.033109
6095.63    36.922489     4.889340
6096.25    42.019993     5.997476
6096.86    41.533409     4.114583
6097.48    37.615013     1.784915
6098.09    36.179638     2.458063
6098.71    39.314651     6.333041
6099.32    40.990288     7.141289
6099.93    45.241890     5.406596
6100.55    52.656086     4.076394
6101.16    52.854202     3.395699
6101.78    52.115475     2.438916
6102.39    50.572952     2.059467
6103.01    42.726387     4.064357
6103.62    41.214855     6.612306
6104.24    41.144161     6.577595
6104.85    33.422955     3.468513
6105.46    27.958698     2.150180
6106.08    34.549789     4.216693
6106.69    44.982655     6.007517
6107.31    39.235962     2.788200
6107.92    35.159611     3.123048
6108.54    38.538162     4.802519
6109.15    40.109730     1.347331
6109.77    38.981319     2.969850
6110.38    39.891575     4.841835
6110.99    42.158806     2.953806
6111.61    36.483524     6.273209
6112.22    31.210823     7.996145
6112.84    28.683851     5.886557
6113.45    24.525745     5.787825
6114.07    30.344208     6.305168
6114.68    35.984058     7.419247
6115.29    29.942677     8.982292
6115.91    28.864738     7.597455
6116.52    37.628845     5.076859
6117.14    47.974068     4.000676
6117.75    47.819309     4.570258
6118.37    43.547836     5.505096
6118.98    37.784855     6.063077
6119.60    32.366917     5.559085
6120.21    40.807327     2.420088
6120.82    46.911182     1.302398
6121.44    37.886543     4.698026
6122.05    31.293921     7.129853
6122.67    42.130547     5.813595
6123.28    58.769894     2.817359
6123.90    56.850418     2.497252
6124.51    48.191368     4.587626
6125.13    39.889549     6.127602
6125.74    35.579025     5.224356
6126.35    43.022816     4.067479
6126.97    46.740189     4.389403
6127.58    40.932468     6.022264
6128.20    38.952457     6.705549
6128.81    39.006336     3.678183
6129.43    39.032574     0.922827
6130.04    37.367493     3.857487
6130.66    29.010403     8.561590
6131.27    27.496384     7.505902
6131.88    33.999779     2.113943
6132.50    28.209263     4.239602
6133.11    34.758675     6.604668
6133.73    47.221588     5.962566
6134.34    38.381710     6.128958
6134.96    37.147442     4.955802
6135.57    43.163948     3.976812
6136.19    43.947136     4.892600
6136.80    45.037350     5.191169
6137.41    43.783768     4.800701
6138.03    38.720520     5.053377
6138.64    34.681091     6.627221
6139.26    38.742287     6.873063
6139.87    46.351994     5.740057
6140.49    47.716148     4.377073
6141.10    41.595810     2.204922
6141.72    39.662766     2.968767
6142.33    43.975468     6.952847
6142.94    41.782623     8.451604
6143.56    38.641373     6.607800
6144.17    40.810951     5.002597
6144.79    47.030373     6.058558
6145.40    47.873421     4.394323
6146.02    45.194515     5.127313
6146.63    44.025486     8.997703
6147.24    44.037556     5.058770
6147.86    43.639957     3.035691
6148.47    41.722878     5.055727
6149.09    39.670975     4.004785
6149.70    43.001499     5.627609
6150.32    46.157036     6.695792
6150.93    41.223488     4.122889
6151.55    31.368744     5.309001
6152.16    33.552773     5.338630
6152.77    42.015297     2.954614
6153.39    34.314911     4.110794
6154.00    33.897652     6.226510
6154.62    42.803520     5.389983
6155.23    46.911308     2.170281
6155.85    45.748772     3.851474
6156.46    45.348228     6.927794
6157.08    44.034462     8.982254
6157.69    35.003239    12.740178
6158.30    39.197823    10.693746
6158.92    51.304501     5.386522
6159.53    51.069878     4.791531
6160.15    46.240776     5.610880
6160.76    41.304348     6.142321
6161.38    39.832039     5.153898
6161.99    46.210178     1.563745
6162.61    49.771214     2.476738
6163.22    45.058422     6.231789
6163.83    37.843933     4.938926
6164.45    38.434906     1.678182
6165.06    39.276218     1.591007
6165.68    33.509613     4.806055
6166.29    30.886930     4.753850
6166.91    31.472759     3.596971
6167.52    33.174732     4.110337
6168.14    34.478683     5.703906
6168.75    31.346382     6.039860
6169.36    30.890038     8.019149
6169.98    34.451813    11.913197
6170.59    24.971703     9.427029
6171.21    20.261126     8.649566
6171.82    30.561127    10.982512
6172.44    41.540272     7.430518
6173.05    41.082592     5.052797
6173.66    38.344490     4.849459
6174.28    42.842552     3.319372
6174.89    38.788086     2.133884
6175.51    34.163181     4.677816
6176.12    38.041145     7.999853
6176.74    45.268631     4.628442
6177.35    46.844692     2.111101
6177.97    41.773441     3.369500
6178.58    34.618824     5.535182
6179.19    27.515425     7.446124
6179.81    24.841270     7.944469
6180.42    29.761816     6.087780
6181.04    40.544903     2.599744
6181.65    48.691643     2.989682
6182.27    43.970787     6.479943
6182.88    27.016441     7.967020
6183.50    22.286346     7.258879
6184.11    30.532551     3.042999
6184.72    39.668262    -0.144964
6185.34    42.059776     7.039190
6185.95    42.131180    10.038293
6186.57    40.467293     6.757436
6187.18    35.035652     7.033772
6187.80    33.530449     5.497615
6188.41    33.804646     3.863443
6189.03    32.944084     4.914620
6189.64    35.398666     5.235817
6190.25    38.087498     4.643066
6190.87    37.801746     3.934470
6191.48    35.369919     3.788158
6192.10    35.453556     5.007337
6192.71    35.735970     6.207573
6193.33    34.854160     6.057283
6193.94    38.112419     5.663638
6194.56    37.773594     6.835642
6195.17    35.044510     6.745649
6195.78    37.943909     2.465793
6196.40    34.822872     4.157472
6197.01    34.426224     7.123372
6197.63    41.104740     5.118777
6198.24    33.496696     5.914135
6198.86    37.793243     4.584791
6199.47    53.492859     0.866657
6200.08    47.929455     1.934411
6200.70    37.682072     5.286360
6201.31    31.671101     7.198946
6201.93    29.716541     6.252410
6202.54    34.424519     4.406561
6203.16    37.588501     4.295199
6203.77    35.878494     4.972612
6204.39    34.842735     3.437635
6205.00    35.878628     3.058327
6205.61    35.438232     4.375874
6206.23    34.386406     5.088781
6206.84    43.117908     3.840338
6207.46    49.344173     5.415150
6208.07    49.073959     7.968023
6208.69    51.591785     3.857301
6209.30    45.493423    -0.004678
6209.92    33.081493     4.038627
6210.53    24.754719    12.609188
6211.14    23.539576     8.665970
6211.76    37.593296     1.661702
6212.37    53.177811     1.075366
6212.99    44.365829     3.387832
6213.60    36.421715     4.199791
6214.22    37.513161     4.091521
6214.83    38.275291     4.220993
6215.45    34.922462     1.653676
6216.06    35.211960     1.987790
6216.67    39.063828     5.052189
6217.29    36.662567     4.089943
6217.90    32.381207     5.578200
6218.52    32.878914     8.388264
6219.13    39.105534     7.412582
6219.75    42.840622     4.188740
6220.36    39.630188     2.916891
6220.98    36.076515     2.918476
6221.59    41.622665     0.768067
6222.20    42.013023     4.113482
6222.82    40.313084     8.454700
6223.43    43.811779     6.476286
6224.05    41.672474     3.632308
6224.66    37.160332     3.193078
6225.28    33.761078     5.154966
6225.89    30.298332     7.040062
6226.50    31.459587     5.586922
6227.12    34.598442     3.923311
6227.73    37.274277     4.196169
6228.35    43.810242     1.273831
6228.96    36.742409     3.124412
6229.58    24.960157     8.101374
6230.19    35.189148     5.666001
6230.81    36.804947     6.019114
6231.42    35.084671     8.240041
6232.03    42.702782     7.920397
6232.65    39.825375     9.749672
6233.26    45.641094     8.691965
6233.88    58.484669     5.981934
6234.49    52.244160     8.828616
6235.11    38.204453    11.758595
6235.72    33.350567    11.628337
6236.34    37.980385     9.245028
6236.95    33.205044     7.168572
6237.56    35.261585     7.591441
6238.18    40.719551     7.775943
6238.79    32.098938     3.972161
6239.41    35.714031     2.183854
6240.02    42.834076     5.812205
6240.64    38.410961    11.747986
6241.25    34.416054    12.347159
6241.87    37.891670     8.891920
6242.48    39.218674     5.731599
6243.09    29.331982     5.133417
6243.71    30.531708     4.002706
6244.32    33.792850     2.642134
6244.94    29.122952     2.943432
6245.55    29.106707     5.154167
6246.17    30.794636     6.444467
6246.78    32.423882     5.799675
6247.40    34.844250     4.936016
6248.01    33.601513     6.151805
6248.62    29.051407     7.037265
6249.24    26.994415     6.002801
6249.85    32.055328     5.157063
6250.47    30.697145     4.928569
6251.08    25.443377     5.024640
6251.70    27.909910     5.031761
6252.31    34.634304     4.823716
6252.92    36.849503     5.460204
6253.54    33.924160     7.057867
6254.15    33.342464     8.056112
6254.77    31.333004     7.236676
6255.38    30.250977     5.672340
6256.00    33.529274     5.749138
6256.61    35.578136     8.384388
6257.23    33.429470     8.134599
6257.84    31.027645     6.001597
6258.45    34.031685     8.305618
6259.07    35.407116     9.101254
6259.68    31.114634     7.461449
6260.30    26.837448     6.074117
6260.91    34.032570     5.513071
6261.53    39.700066     3.982336
6262.14    41.571972     3.117010
6262.76    45.267529     5.488027
6263.37    33.301750     6.275156
6263.98    24.602285     6.043110
6264.60    30.866806     6.952860
6265.21    29.813625     7.690875
6265.83    33.933483     4.707574
6266.44    37.227718     1.986687
6267.06    28.491169     4.523495
6267.67    33.940983     5.326155
6268.29    36.530220     5.043650
6268.90    30.006136     6.026810
6269.51    38.039341     6.657903
6270.13    41.528042     3.419327
6270.74    40.351891     1.063115
6271.36    42.418617     3.718740
6271.97    34.710690     3.781768
6272.59    31.240892     2.600050
6273.20    35.096992     3.115940
6273.82    32.223515     4.289910
6274.43    29.640930     1.860602
6275.04    30.583111     2.031389
6275.66    35.372818     6.869966
6276.27    43.816914     4.945210
6276.89    38.325642     5.024200
6277.50    26.048012     6.812885
6278.12    26.171656     3.304664
6278.73    22.392105     4.972292
6279.34    27.766371     4.711041
6279.96    40.985680     0.006824
6280.57    31.589283     3.241276
6281.19    25.323788     5.969785
6281.80    28.571760     4.537222
6282.42    28.334766     3.695982
6283.03    26.552511     7.200776
6283.65    31.660568     6.391460
6284.26    39.169144     1.910852
6284.87    34.796555     5.154851
6285.49    26.161217    10.616137
6286.10    23.125195    13.466369
6286.72    26.744276    13.109835
6287.33    27.975370    11.276260
6287.95    28.377094     8.231702
6288.56    28.998682     5.823149
6289.18    28.228428     6.495436
6289.79    27.938606     8.832255
6290.40    32.718418     7.944592
6291.02    39.006226     4.998896
6291.63    36.349274     7.262007
6292.25    34.817028     7.315590
6292.86    36.157658     4.384553
6293.48    35.259369     3.051527
6294.09    33.668911     3.539425
6294.71    35.521503     7.165745
6295.32    37.962051     9.952033
6295.93    36.819599     6.222816
6296.55    45.130409     3.958312
6297.16    44.889202    10.337328
6297.78    30.335373    23.404829
6298.39    32.287510    33.146812
6299.01    24.389423    42.730179
6299.62    11.093690    49.615295
6300.24    18.517120    47.908382
6300.85    29.685402    43.078941
6301.46    28.138214    42.739082
6302.08    20.994207    39.366180
6302.69    29.254633    19.104513
6303.31    37.832153     7.219243
6303.92    36.509666     9.321257
6304.54    27.792042    13.817543
6305.15    21.820004    12.868176
6305.76    28.349190     8.740452
6306.38    37.502716     7.151366
6306.99    32.865963     9.735253
6307.61    25.628910     8.508233
6308.22    24.584543     4.397437
6308.84    25.949556     3.033382
6309.45    19.866896     6.404007
6310.07    17.906916     5.704830
6310.68    24.204357     4.246412
6311.29    32.383144     6.134842
6311.91    35.443676     1.779968
6312.52    40.038837     0.702161
6313.14    41.226318     4.264200
6313.75    30.661186     4.053119
6314.37    30.206350     4.803558
6314.98    35.463234     4.231308
6315.60    34.983032     0.986501
6316.21    31.708586     0.337387
6316.82    35.651047     2.855025
6317.44    38.404037     3.618006
6318.05    30.851772     0.296672
6318.67    28.429348    -0.069253
6319.28    38.737740     2.436734
6319.90    44.079075     5.327199
6320.51    28.261618     6.926592
6321.13    29.516624     6.504416
6321.74    30.405647     5.997615
6322.35    17.962767     8.022083
6322.97    20.443521    12.342353
6323.58    25.649851    11.618445
6324.20    29.235292     6.807774
6324.81    33.818180     4.065924
6325.43    31.815374     5.029995
6326.04    25.874729     6.737898
6326.66    21.698202     8.296946
6327.27    22.296415    10.089567
6327.88    26.354385     7.865170
6328.50    32.666786     5.576609
6329.11    37.012608     6.006182
6329.73    34.676174     5.878081
6330.34    35.002941     6.764899
6330.96    39.160721     6.530917
6331.57    41.910347     4.102539
6332.18    41.229191     4.634593
6332.80    38.331287     4.532883
6333.41    37.146286     2.770211
6334.03    39.012569     2.079813
6334.64    36.310543     1.951510
6335.26    30.739159     4.684270
6335.87    30.250315     8.036933
6336.49    37.368355     5.932347
6337.10    33.717827     4.018182
6337.71    29.202696     4.112819
6338.33    35.661900     4.051826
6338.94    37.515297     2.540611
6339.56    32.624378     1.925674
6340.17    30.495537     3.455902
6340.79    37.030437     5.082391
6341.40    39.787907     2.953712
6342.02    37.803837     2.452436
6342.63    37.214565     3.987208
6343.24    39.718464     2.785419
6343.86    32.241409     5.685543
6344.47    24.571775     5.908191
6345.09    25.989431     1.010177
6345.70    27.824415     2.696457
6346.32    32.268078     5.193707
6346.93    36.698879     4.604280
6347.55    34.704678     3.045182
6348.16    25.684208     4.266597
6348.77    20.283140     8.486124
6349.39    18.395025    10.947943
6350.00    16.542183     7.773212
6350.62    31.011065     4.947607
6351.23    42.469849     3.347387
6351.85    40.938011     3.076704
6352.46    40.612972     4.896785
6353.08    30.783989     3.588393
6353.69    23.479635     1.826594
6354.30    28.829248     2.960700
6354.92    31.347578     3.771327
6355.53    29.418411     4.538880
6356.15    22.916119     6.728636
6356.76    16.046993     9.783126
6357.38    21.726627     9.894367
6357.99    28.436596     7.812982
6358.60    27.493790     5.771249
6359.22    24.075443     5.023896
6359.83    27.440489     5.077919
6360.45    38.013836     4.815843
6361.06    43.822472     7.393594
6361.68    34.759819    15.179767
6362.29    35.998974    12.590294
6362.91    48.126869     7.315773
6363.52    50.289162    11.798735
6364.13    30.919476    18.888414
6364.75    28.934818    14.204985
6365.36    40.942410     5.972508
6365.98    38.903690     7.654457
6366.59    30.080484     9.085679
6367.21    32.735165     5.296429
6367.82    40.301189     0.561397
6368.44    35.801140     1.383588
6369.05    35.339626     4.937850
6369.66    37.759613     5.613810
6370.28    34.298851     2.744165
6370.89    26.135483     1.017985
6371.51    32.361702     1.883593
6372.12    35.738216     3.481892
6372.74    30.029152     4.000677
6373.35    40.054867     3.926411
6373.97    37.256603     4.455647
6374.58    27.585634     5.111300
6375.19    29.787521     5.019625
6375.81    30.220091     4.498900
6376.42    23.130011     2.989875
6377.04    26.148529     1.990019
6377.65    42.114037     2.882437
6378.27    24.762934     3.184056
6378.88    18.096142     2.765912
6379.50    33.549896     3.202126
6380.11    35.690636     4.869527
6380.72    40.019630     4.194800
6381.34    38.145702     2.161045
6381.95    27.287449     2.155119
6382.57    24.157923     5.816512
6383.18    29.539457     9.273985
6383.80    33.423180     7.458235
6384.41    27.850132     2.977867
6385.02    17.383617     4.953338
6385.64    19.184477     6.718463
6386.25    26.378613     5.419696
6386.87    26.989462     4.002851
6387.48    28.304163     4.916943
6388.10    29.884512     3.928344
6388.71    34.969852     1.624137
6389.33    43.528053     1.827057
6389.94    43.688633     3.715607
6390.55    47.212086     3.171090
6391.17    48.925961     0.625691
6391.78    35.356834     0.587136
6392.40    25.889259     4.093532
6393.01    26.268669     3.957468
6393.63    33.034317     0.863140
6394.24    39.037682     2.466173
6394.86    33.956024     3.988497
6395.47    26.753828     3.739988
6396.08    23.742409     2.961367
6396.70    20.657080     2.893216
6397.31    25.828613     3.299674
6397.93    35.201263     2.391332
6398.54    40.029701     2.049827
6399.16    37.968266     6.286201
6399.77    31.336300     5.540073
6400.39    31.841543     2.502677
6401.00    37.107037     2.983391
6401.61    25.858715     2.970879
6402.23    26.277428     3.466298
6402.84    35.369789     3.999176
6403.46    34.185322     3.103849
6404.07    33.413216     1.943755
6404.69    35.330559     2.817547
6405.30    37.242542     2.394581
6405.92    35.593464    -0.190881
6406.53    29.665586     5.343323
6407.14    32.105579     8.282938
6407.76    38.346367     4.066710
6408.37    34.759792     0.235014
6408.99    31.758507     0.791925
6409.60    30.172543     2.976399
6410.22    30.325758     4.094904
6410.83    33.660919     4.739936
6411.44    32.902714     6.273377
6412.06    29.507431     4.404423
6412.67    28.013823     2.163332
6413.29    29.552677     6.458467
6413.90    31.417397     5.225309
6414.52    37.307682     2.448952
6415.13    44.199993     3.024407
6415.75    40.611248     2.358881
6416.36    29.958588     1.133723
6416.97    28.950317     1.410646
6417.59    36.024498     4.151588
6418.20    30.179220     7.152900
6418.82    32.015141     4.143657
6419.43    38.451706     2.458694
6420.05    37.974564     6.020386
6420.66    34.750061     4.850034
6421.28    28.755165     3.004320
6421.89    28.213676     3.294889
6422.50    34.931557     4.005141
6423.12    35.904808     2.605292
6423.73    37.513134     1.467556
6424.35    36.839073     2.635067
6424.96    31.130163     4.947776
6425.58    31.330549     4.729719
6426.19    32.043137     2.555814
6426.81    30.510956     2.492695
6427.42    29.057800     4.960288
6428.03    28.055458     3.571755
6428.65    24.316925     3.495875
6429.26    22.199574     5.354033
6429.88    29.046585     5.129178
6430.49    40.783913     3.164335
6431.11    32.973465     4.194850
6431.72    21.716978     6.089517
6432.34    31.193115     4.252721
6432.95    33.537571     2.142948
6433.56    33.578926     2.787791
6434.18    33.372292     4.027283
6434.79    29.975094     2.302528
6435.41    33.720642    -0.109107
6436.02    33.598480     1.786505
6436.64    31.252941     3.851219
6437.25    34.885647     1.135730
6437.86    31.680166     2.660939
6438.48    26.839523     4.702494
6439.09    26.187355     3.553775
6439.71    27.866886     1.928282
6440.32    28.809404     4.209717
6440.94    35.949730     4.341945
6441.55    37.321365     3.143414
6442.17    25.225533     4.998707
6442.78    35.615295     2.579001
6443.39    42.996666     0.287831
6444.01    36.980736     1.368828
6444.62    34.357407     3.674794
6445.24    31.468082     5.425594
6445.85    35.650360     3.149147
6446.47    42.718945     1.193943
6447.08    40.713139     3.937285
6447.70    33.920208     1.953959
6448.31    22.204447     5.103260
6448.92    19.528812     8.517350
6449.54    34.554920     1.552227
6450.15    36.804539     2.435711
6450.77    30.962748     4.065189
6451.38    29.215021     3.040044
6452.00    32.591167     4.051485
6452.61    34.554310     1.953150
6453.23    35.723305     1.067112
6453.84    37.336994     2.077843
6454.45    38.072578     1.182045
6455.07    35.392418     0.167370
6455.68    25.981110     3.708986
6456.30    23.395477     7.068546
6456.91    35.284889     4.274597
6457.53    33.788334     3.522718
6458.14    29.222755     4.694803
6458.76    25.493332     4.815915
6459.37    19.931658     3.959918
6459.98    25.761284     5.556074
6460.60    23.393494     5.399609
6461.21    21.844925     3.765419
6461.83    36.238548     3.962789
6462.44    37.500225     4.517289
6463.06    27.434690     6.139936
6463.67    25.603985     6.851550
6464.28    36.631538     5.086311
6464.90    36.591202     4.528253
6465.51    33.835804     6.396202
6466.13    36.199799     6.387000
6466.74    40.895836     3.057855
6467.36    41.131531     3.365165
6467.97    32.421803     4.862153
6468.59    28.924429     4.725798
6469.20    37.969669     3.998282
6469.81    41.670998     5.106956
6470.43    42.513828     3.254082
6471.04    38.696232     2.447962
6471.66    30.865557     5.024898
6472.27    29.433918     3.695783
6472.89    31.821957     2.171113
6473.50    33.128868     4.369390
6474.12    33.045719     6.969171
6474.73    34.185551     3.714572
6475.34    32.040371     3.197182
6475.96    34.240891     3.983038
6476.57    40.171604     2.923269
6477.19    38.198109     2.855697
6477.80    39.789955     3.665876
6478.42    34.728401     3.978697
6479.03    27.065605     2.744790
6479.65    34.266041     1.007839
6480.26    31.474485     2.359981
6480.87    30.250158     2.565654
6481.49    36.856548     2.322347
6482.10    37.482063     5.708789
6482.72    33.385456     5.206196
6483.33    35.655262     2.927191
6483.95    43.362728     1.859305
6484.56    42.970158     2.681499
6485.18    29.215693     6.820983
6485.79    25.762192     7.603119
6486.40    33.815090     3.959100
6487.02    35.231216     1.066256
6487.63    28.376078     1.500220
6488.25    24.518250     2.535231
6488.86    23.303841     3.284501
6489.48    23.937281     3.999374
6490.09    34.439503     3.353902
6490.71    32.057880     2.364528
6491.32    26.950796     1.928689
6491.93    33.284176     2.005034
6492.55    36.853302     2.029005
6493.16    35.688942     1.900692
6493.78    27.806553     2.293117
6494.39    22.246250     4.307441
6495.01    31.926704     7.582326
6495.62    36.919186     8.130385
6496.23    34.320259     8.394454
6496.85    30.492407     8.891781
6497.46    30.323864     7.885071
6498.08    36.253708    10.253137
6498.69    30.304474    10.042967
6499.31    27.001703     6.240136
6499.92    43.355740     4.111724
6500.54    37.693981     3.596090
6501.15    34.481346     5.316184
6501.76    36.105122     7.396199
6502.38    30.041542     7.043022
6502.99    33.332275     4.244730
6503.61    30.853092     0.820774
6504.22    24.418352     2.725065
6504.84    26.287321     8.083407
6505.45    32.542801     6.389610
6506.07    23.680271     7.146229
6506.68    21.280416     7.316182
6507.29    31.536913     4.924518
6507.91    29.924368     6.568968
6508.52    34.979561     7.746793
6509.14    34.829033     5.221808
6509.75    30.108105     1.503446
6510.37    35.580624     0.910433
6510.98    34.313206     2.230873
6511.60    29.256683     3.929596
6512.21    28.460178     3.497274
6512.82    31.904747     1.046408
6513.44    32.823444     1.503190
6514.05    33.894360     2.654101
6514.67    33.140892     3.141204
6515.28    29.922176     4.075532
6515.90    30.475582     6.382238
6516.51    32.933750     7.990850
6517.13    39.652161     4.830601
6517.74    42.250648     0.953411
6518.35    31.787132     3.670098
6518.97    35.611412     3.037681
6519.58    38.582512     1.811414
6520.20    31.323730     5.162275
6520.81    27.795937     9.096547
6521.43    33.983410     3.795062
6522.04    35.499710     2.775110
6522.65    30.437847     7.081218
6523.27    26.984682     7.994870
6523.88    26.951267     6.480314
6524.50    31.917591     5.140787
6525.11    30.944441     2.709167
6525.73    28.674150     1.136945
6526.34    40.873417     4.558956
6526.96    36.609665     4.259862
6527.57    28.320135     2.172427
6528.18    29.602140     2.152027
6528.80    31.197392     2.996986
6529.41    27.205149     2.243035
6530.03    30.445120     2.414524
6530.64    29.239805     4.978168
6531.26    15.976032     8.006879
6531.87    19.122505     8.398561
6532.49    28.135777     6.440854
6533.10    31.227367     4.244659
6533.71    29.997375     4.149930
6534.33    31.683928     5.942854
6534.94    32.046196     4.668100
6535.56    28.980436     4.448430
6536.17    22.222137     6.256541
6536.79    19.367752     5.253245
6537.40    34.061707     1.085189
6538.02    31.705599    -0.016210
6538.63    24.204288     1.281329
6539.24    33.236256     0.969700
6539.86    33.855782     0.593193
6540.47    30.853453     3.505924
6541.09    29.865570     4.976078
6541.70    27.077610     4.030289
6542.32    22.385641     5.734771
6542.93    33.051529     6.852361
6543.55    28.125885     7.106011
6544.16    16.363899     6.844424
6544.77    26.698233     5.073352
6545.39    35.011131     1.986290
6546.00    31.293810     4.525214
6546.62    35.468243     4.866338
6547.23    45.941639     0.948523
6547.85    34.814980     4.319582
6548.46    32.399288     5.615075
6549.07    27.609488     4.302798
6549.69    26.089476     4.208062
6550.30    38.102798     6.758731
6550.92    23.080248    10.067165
6551.53    24.200790     7.211304
6552.15    38.348591     3.338573
6552.76    38.866985     4.050476
6553.38    36.043274     4.612425
6553.99    30.332878     7.505162
6554.60    27.362167     9.429032
6555.22    26.504671     7.291247
6555.83    27.157656     3.277936
6556.45    41.419205     1.733425
6557.06    34.219170     3.011917
6557.68    24.313318     1.953752
6558.29    34.227100     0.136626
6558.91    30.227623     6.168689
6559.52    29.701828     5.405662
6560.13    36.430939     4.941749
6560.75    33.660149     9.813391
6561.36    20.075548    10.365538
6561.98    32.254044     4.406099
6562.59    35.469593     4.059126
6563.21    27.434711     5.727513
6563.82    31.445518     1.801936
6564.44    39.745636    -0.157427
6565.05    34.102661     2.035582
6565.66    26.997084     5.593077
6566.28    30.154667     5.412806
6566.89    34.149147     2.003065
6567.51    27.498999     5.179145
6568.12    24.725039     4.374329
6568.74    34.808350     1.865916
6569.35    41.588406     2.970622
6569.97    25.727652     0.528983
6570.58    23.033119    -0.553634
6571.19    33.762672     1.023551
6571.81    38.883217     3.567326
6572.42    35.042103     5.009430
6573.04    37.896973     3.590227
6573.65    33.464558     2.678321
6574.27    26.356913     5.724867
6574.88    31.133812     7.725661
6575.49    41.782326     1.733462
6576.11    34.178040     1.552531
6576.72    30.634991     4.145279
6577.34    33.639145     5.312633
6577.95    29.988468     6.003029
6578.57    34.489433     5.106317
6579.18    25.855749     5.405005
6579.80    25.942120     3.537876
6580.41    35.834175     1.053667
6581.02    25.587143     3.778209
6581.64    32.347622     3.486805
6582.25    47.561260     3.130197
6582.87    42.801979     4.426923
6583.48    25.798502     4.988552
6584.10    35.146770     4.184812
6584.71    34.385601     3.788697
6585.33    30.689659     4.427937
6585.94    29.825583     5.041347
6586.55    23.955696     4.986588
6587.17    30.855927     5.725965
6587.78    27.850531     6.120229
6588.40    27.638390     3.358452
6589.01    34.829723     1.188094
6589.63    25.148373     4.817863
6590.24    24.165327     2.544509
6590.86    31.631220     0.420206
6591.47    34.959023     1.185818
6592.08    31.906431     0.972169
6592.70    32.368656     0.712025
6593.31    34.953030     3.031738
6593.93    30.296646     3.830357
6594.54    28.346085     3.050793
6595.16    36.983498     3.994422
6595.77    27.994553     3.157452
6596.39    24.822626     3.557413
6597.00    32.431675     3.754772
6597.61    32.854847     3.027276
6598.23    21.601265     3.951291
6598.84    25.415857     3.408949
6599.46    32.421940     2.594942
6600.07    34.591961     1.440047
6600.69    34.897465     1.156980
6601.30    31.188251     5.225153
6601.91    24.532005     7.556639
6602.53    23.995893     5.119102
6603.14    25.729452     2.998734
6603.76    25.037889     3.992595
6604.37    33.486076     1.368098
6604.99    33.930679     2.316487
6605.60    29.000103     4.982750
6606.22    29.890448     4.666757
6606.83    34.901321     3.012144
6607.44    32.556404     4.386322
6608.06    28.703768     5.530218
6608.67    30.942617     4.116688
6609.29    38.052704     3.150249
6609.90    41.236492     4.995975
6610.52    35.774258     2.863256
6611.13    33.930241     2.190920
6611.75    32.491310     5.381044
6612.36    29.154249     6.814757
6612.97    33.829304     3.232814
6613.59    30.462399     4.566173
6614.20    34.379494     3.149421
6614.82    37.879517    -0.708359
6615.43    26.360592     0.117562
6616.05    20.571758     2.538409
6616.66    27.087122     4.128493
6617.28    33.081612     3.040920
6617.89    30.710581     2.160084
6618.50    24.923702     4.022242
6619.12    23.652449     4.218787
6619.73    32.865379     2.965441
6620.35    37.062286     0.980627
6620.96    30.040081     1.767942
6621.58    25.001064     5.004542
6622.19    27.894356     1.648109
6622.81    24.678560     2.360088
6623.42    27.624037     4.319129
6624.03    30.427092     4.156879
6624.65    18.129814     5.042865
6625.26    27.487080     2.559022
6625.88    32.591576     2.574457
6626.49    33.370300     5.036777
6627.11    35.658840     5.968537
6627.72    31.949303     4.213395
6628.33    37.083527     1.290414
6628.95    34.866695     2.255073
6629.56    32.917824     4.771320
6630.18    40.113781     3.407394
6630.79    39.899719     0.795698
6631.41    24.200043     6.767093
6632.02    19.505449     5.549350
6632.64    24.753731     1.218614
6633.25    28.909248     2.037489
6633.86    37.128918     1.083785
6634.48    43.683445     1.336766
6635.09    41.059513     3.608305
6635.71    35.089813     3.007731
6636.32    29.952654     1.177337
6636.94    23.172535     4.767983
6637.55    28.330154     3.996193
6638.17    42.145138     1.710689
6638.78    41.026405     0.704421
6639.39    28.356253     1.241875
6640.01    32.644238     2.990558
6640.62    29.779070     1.490271
6641.24    22.964346     1.387622
6641.85    25.973740     1.883454
6642.47    33.265095     2.351218
6643.08    29.375177     5.805452
6643.70    28.381590     5.115669
6644.31    25.309359     1.863736
6644.92    22.874123     1.486601
6645.54    25.438078     2.993971
6646.15    26.994871     1.968197
6646.77    27.368139     3.779654
6647.38    35.249718     2.425084
6648.00    35.340881     1.157029
6648.61    29.380020     1.787504
6649.23    34.406731    -0.056614
6649.84    19.388939     3.673614
6650.45    24.914087     5.863726
6651.07    30.060457     3.814755
6651.68    22.195009     1.874587
6652.30    31.695213     2.912171
6652.91    29.767376     4.157277
6653.53    25.681652     2.535268
6654.14    24.584330     2.917048
6654.75    27.293974     5.121990
6655.37    33.927498     4.015306
6655.98    32.462605     4.119388
6656.60    26.458796     2.698991
6657.21    22.773748     2.207055
6657.83    21.693048     3.023732
6658.44    23.077286     1.981617
6659.06    30.485147     1.008292
6659.67    26.121441     1.612701
6660.28    16.373562     2.065779
6660.90    18.631916     2.105100
6661.51    30.379740     3.066410
6662.13    28.714027     4.002967
6662.74    18.253973     3.000432
6663.36    18.055857     0.517918
6663.97    22.200352     0.689403
6664.59    18.702126     3.038304
6665.20    19.334179     1.957810
6665.81    25.323584     4.235862
6666.43    23.113106     4.441572
6667.04    25.273811     2.403337
6667.66    32.791130     1.991459
6668.27    23.559315     2.004537
6668.89    23.906326     1.933670
6669.50    24.615009     2.440920
6670.12    19.221327     3.473635
6670.73    19.439133     4.001440
6671.34    29.837296     3.046198
6671.96    29.197083     1.207033
6672.57    25.864735     1.483048
6673.19    27.541393     2.125245
6673.80    30.325119     2.025462
6674.42    30.002972     1.974959
6675.03    29.686140     1.043312
6675.65    24.907207     1.656096
6676.26    33.804405     1.951167
6676.87    37.206978     2.428969
6677.49    20.849497     4.124844
6678.10    23.430317     4.119074
6678.72    37.294952     3.035539
6679.33    33.567497     3.757832
6679.95    28.686460     3.193760
6680.56    34.168926     0.769472
6681.17    28.337358     0.984174
6681.79    23.350166     1.409667
6682.40    24.586771     4.611134
6683.02    32.733963     2.796954
6683.63    34.382923     0.687591
6684.25    21.562290     6.085101
6684.86    16.469248     3.712358
6685.48    23.280567     1.766813
6686.09    30.110008     2.850761
6686.70    28.328588     4.487506
6687.32    23.869545     3.616077
6687.93    27.431881     0.112974
6688.55    31.473694     1.521275
6689.16    26.804272     1.130751
6689.78    27.358643    -0.146115
6690.39    29.782001     1.488577
6691.01    20.015514     3.988496
6691.62    24.730442     5.925653
6692.23    25.002287     4.971255
6692.85    18.224693     3.123156
6693.46    21.065075     3.435384
6694.08    32.547813     5.076165
6694.69    30.536877     4.268318
6695.31    27.921745     2.126851
6695.92    24.278419     3.224919
6696.54    23.922812     3.310131
6697.15    25.710659     0.679245
6697.76    22.031469     0.980717
6698.38    23.420713     1.911663
6698.99    24.259043     1.906668
6699.61    20.443926     2.554496
6700.22    20.244482     2.741162
6700.84    28.881168     0.811100
6701.45    32.689125     0.635210
6702.07    20.917702     5.150669
6702.68    15.665300     4.454429
6703.29    25.408417     0.915779
6703.91    29.932182     1.368266
6704.52    20.010242     2.999187
6705.14    24.659035     1.573766
6705.75    26.508144    -0.480341
6706.37    26.521492     2.509456
6706.98    24.058006     4.784385
6707.59    20.311193     1.751113
6708.21    25.989578     2.691916
6708.82    21.661285     6.007020
6709.44    36.357788     3.078570
6710.05    43.665417     1.227338
6710.67    30.137228     3.111694
6711.28    27.066315     1.973900
6711.90    29.868553     2.723162
6712.51    27.332380     4.034825
6713.12    21.745749     3.018384
6713.74    25.178566     1.864607
6714.35    30.590748     1.888104
6714.97    21.274525     1.000813
6715.58    19.068127     1.853909
6716.20    24.217743     1.537486
6716.81    25.902615     0.626236
6717.43    25.310015     1.632158
6718.04    25.709169     4.275076
6718.65    22.784355     5.138721
6719.27    28.285410     2.533962
6719.88    19.911055     2.499223
6720.50    20.291265     2.554805
6721.11    30.510336     2.433786
6721.73    23.712942     3.930675
6722.34    24.345125     1.037695
6722.96    27.957504     4.041955
6723.57    25.695883     3.543737
6724.18    24.697361    -0.035899
6724.80    26.951948     1.981339
6725.41    24.999268     6.000777
6726.03    27.419931     2.635706
6726.64    28.047552     2.235977
6727.26    20.758692     3.456288
6727.87    17.824760     2.329976
6728.49    23.589968     0.931332
6729.10    22.152250     1.935773
6729.71    19.321638     3.163828
6730.33    25.918158     1.076712
6730.94    25.694750    -0.145690
6731.56    24.750963     1.888547
6732.17    32.324726     4.219656
6732.79    27.482584     4.136774
6733.40    22.135729     1.895507
6734.01    18.461617     4.694922
6734.63    19.137304     4.982124
6735.24    21.105999     1.052045
6735.86    18.603498     1.262975
6736.47    14.432388     4.727797
6737.09    11.701830     5.663625
6737.70    20.123184     2.422629
6738.32    16.744350     4.179383
6738.93    10.011122     6.419485
6739.54    24.253996     1.802125
6740.16    30.925226     2.903328
6740.77    29.328815     1.704445
6741.39    29.569553     0.351840
6742.00    19.648125     2.555486
6742.62     7.907181     5.525872
6743.23    14.799927     4.799272
6743.85    23.177065     2.144809
6744.46    28.504244     2.604295
6745.07    27.955666     3.195647
6745.69    27.231855     2.768891
6746.30    27.800301     1.457331
6746.92    24.633307     1.222743
6747.53    21.817677     4.921919
6748.15    26.666632     2.053070
6748.76    27.595686     1.119455
6749.38    24.729580     2.265517
6749.99    18.073486     1.915741
6750.60    12.385175     2.031819
6751.22    24.063639     2.083711
6751.83    24.745375     0.547362
6752.45    19.878113    -0.635538
6753.06    22.745543     1.770229
6753.68    25.493889     4.120213
6754.29    23.333803     1.631922
6754.91    29.014542    -0.144127
6755.52    22.407354     3.508883
6756.13    23.880293     2.125859
6756.75    28.014168     2.047975
6757.36    30.911318     3.842968
6757.98    34.649284     0.551157
6758.59    25.585583    -0.176460
6759.21    20.028961     4.402342
6759.82    22.331385     3.380797
6760.43    25.102650     1.918607
6761.05    29.136919     3.443390
6761.66    28.285429     2.601718
6762.28    13.228214     0.959205
6762.89    16.161785     4.662816
6763.51    29.968246     2.900433
6764.12    31.225739     3.290949
6764.74    25.774269     4.701204
6765.35    24.378082     1.314890
6765.96    24.125057     0.012037
6766.58    33.313313     1.778986
6767.19    21.028080     1.973260
6767.81    24.663982     2.745758
6768.42    28.510208     2.314318
6769.04    17.801773     2.891025
6769.65    21.255238     5.896414
6770.27    22.776062     0.503164
6770.88    24.822527     0.202979
6771.49    17.923159     2.350570
6772.11    13.727242     3.523581
6772.72    18.645889     4.107557
6773.34    22.321705     3.932559
6773.95    23.059107     3.063769
6774.57    21.295494     2.096563
6775.18    21.071089     2.350994
6775.80    20.056852     4.191588
6776.41    18.900284     4.797910
6777.02    18.821213     2.421739
6777.64    21.098488     1.014613
6778.25    32.282059     3.797273
6778.87    27.753536     2.891498
6779.48    24.614380     5.704500
6780.10    23.177525     5.105330
6780.71    24.068390     0.761072
6781.33    30.691973     3.115392
6781.94    19.582808     2.134256
6782.55    23.475117     1.762055
6783.17    29.253031     2.848970
6783.78    26.860821     2.330892
6784.40    18.500584     0.385987
6785.01    14.621863     0.168035
6785.63    22.959404     1.986946
6786.24    21.973402     2.977715
6786.85    17.437792     2.523046
6787.47    18.860201     0.968744
6788.08    24.471375     2.271623
6788.70    23.337528     5.589152
6789.31    18.189947     4.734062
6789.93    24.879158     1.183625
6790.54    18.715450     1.462428
6791.16    18.803606     3.089581
6791.77    28.505619     1.887856
6792.38    26.576632     1.477200
6793.00    22.755772     2.944915
6793.61    33.924488     0.980098
6794.23    13.862139     0.868476
6794.84    20.073118     1.710818
6795.46    21.842926     2.361492
6796.07    24.858498     0.964860
6796.69    30.525696     0.390373
6797.30    22.177933     1.946364
6797.91    30.914581     0.035432
6798.53    21.093418     1.480425
6799.14    12.898970     3.217134
6799.76    14.992399     5.758893
6800.37    14.753061     6.895953
6800.99    15.796043     4.134598
6801.60    24.078724     2.018589
6802.22    19.916462     3.886308
6802.83    27.077333     3.296772
6803.44    22.067787     3.016056
6804.06    18.299799     2.424994
6804.67    20.962801     2.346052
6805.29    17.318714     2.759054
6805.90    17.080976     0.996551
6806.52    21.512856     2.742688
6807.13    22.056345     3.229542
6807.75    17.887068     2.436316
6808.36    18.627398     1.525476
6808.97    20.646437     0.828321
6809.59    14.811141     1.175141
6810.20    12.971739     2.001650
6810.82    24.213089     0.952413
6811.43    19.117985     2.658580
6812.05    15.913898     1.848016
6812.66    28.165800     1.566475
6813.27    25.717598     3.125876
6813.89     8.931981     1.746583
6814.50    25.585091     0.979842
6815.12    30.380533     2.750670
6815.73    20.223766     2.646926
6816.35    20.098104     0.699151
6816.96    19.711353     0.097472
6817.58    15.036171     3.528691
6818.19    23.557283     6.984124
6818.80    31.069824     3.159428
6819.42    21.746962     0.765225
6820.03    18.899889     3.858124
6820.65    17.117397     5.050887
6821.26    20.363476     3.034146
6821.88    26.340307     1.809333
6822.49    22.593260     2.099865
6823.11    21.079731     2.977010
6823.72    18.121223     3.688618
6824.33    20.460993     5.722998
6824.95    23.386957     4.792489
6825.56    21.469683     1.763246
6826.18    16.421331     5.346937
6826.79    16.980692    10.782402
6827.41    24.041449     4.091602
6828.02    14.937262     6.107022
6828.64    19.042244     9.129489
6829.25    22.858837     7.152221
6829.86    19.070555     3.230874
6830.48    16.454927     4.307585
6831.09    20.494402     6.555022
6831.71    27.006834     1.999264
6832.32    14.817907     7.458648
6832.94    21.636572     5.763342
6833.55    24.526150     6.871341
6834.17    17.942486     6.396222
6834.78    18.141405     4.467066
6835.39    17.634493     8.580770
6836.01    11.123798     7.889946
6836.62    25.250031     3.400745
6837.24    29.418640     2.649968
6837.85    17.860884     3.761934
6838.47    18.934774     3.870459
6839.08    27.803242     2.034113
6839.70    21.361050     1.346337
6840.31    10.578502     4.128579
6840.92    14.789538     3.266809
6841.54    29.717421     0.073193
6842.15    17.747990     2.573618
6842.77    14.568177     4.165177
6843.38    25.620068     1.970454
6844.00    26.698227     1.037826
6844.61    20.664272     2.136595
6845.22    14.751829     2.049436
6845.84    31.587307     0.039641
6846.45    23.530106     1.616134
6847.07    14.846993     0.828956
6847.68    20.388571     0.640530
6848.30    24.658159     2.065203
6848.91    22.152311     2.380477
6849.53    17.922091     5.031108
6850.14    18.624464     3.358830
6850.75    21.799810     1.067394
6851.37    20.178432     2.218750
6851.98    18.859133     3.173663
6852.60    18.347027     3.113358
6853.21    17.006172     2.572328
6853.83    19.373991     0.979784
6854.44    22.872013     2.866431
6855.06    24.816360     5.114786
6855.67    25.205366     2.258013
6856.28    24.111322     0.300428
6856.90    21.545593     2.248316
6857.51    17.384853     2.363266
6858.13    15.131072     1.368866
6858.74    19.223848     3.968120
6859.36    22.966721     0.246222
6859.97    19.288195     1.824340
6860.59     9.716220     6.230103
6861.20    11.066166    10.325933
6861.81    18.340668     9.780582
6862.43    22.593288     6.537282
6863.04    24.363768     7.113073
6863.66    17.027248     7.981719
6864.27    21.193401     9.208611
6864.89    22.490215     5.867868
6865.50    21.158463     5.369547
6866.12    17.543941     5.637300
6866.73    16.956242     2.619091
6867.34    16.575420     1.177968
6867.96     9.970417     3.076598
6868.57    16.623850     2.083394
6869.19    18.822008     1.042195
6869.80    13.163691     1.480837
6870.42    18.066137     3.274432
6871.03    15.347334     4.066056
6871.64     9.977365     1.920749
6872.26    14.331466     1.658917
6872.87     9.292253     4.946774
6873.49    20.651554     0.307595
6874.10    15.528851    -0.249113
6874.72    22.172354     0.079587
6875.33    21.782516     0.259969
6875.95    15.710740     2.075027
6876.56    19.799316     2.747669
6877.17    21.536705     0.604787
6877.79    16.874002     0.049168
6878.40    17.004583     1.878177
6879.02    14.883297     2.052470
6879.63    12.169270     2.140214
6880.25    17.336664     1.198147
6880.86    18.881172     1.879479
6881.48    18.416073     2.667032
6882.09    21.163942     0.917440
6882.70    14.000533     2.047456
6883.32    21.429272     2.097242
6883.93    20.802715     1.005601
6884.55    19.473248     1.899226
6885.16    16.675390     0.807262
6885.78    18.347101     0.579861
6886.39    21.863754     2.190787
6887.01    17.122828     2.112491
6887.62    13.844628     3.001424
6888.23    11.893349     2.079083
6888.85    14.829044     1.915528
6889.46    12.856672     2.152313
6890.08    17.517035     1.519550
6890.69    17.575241     3.745211
6891.31    15.474858     3.808535
6891.92    22.546722    -0.185854
6892.54    16.234318     2.128744
6893.15     8.742912     2.062050
6893.76    20.876551     1.780461
6894.38    22.458006     3.552693
6894.99    20.734247     3.654078
6895.61    16.546528     2.533544
6896.22    13.558906     1.517846
6896.84    15.444770     1.203664
6897.45    12.177347     1.907128
6898.06    16.990875     0.023072
6898.68    11.121784     0.932398
6899.29     9.892844     0.062046
6899.91    18.752251     1.642502
6900.52    18.680941     3.703094
6901.14    20.424782     1.696742
6901.75    28.303951     0.218519
6902.37    20.783470     2.056194
6902.98    14.983032     0.997484
6903.59    13.916132     1.842882
6904.21    14.416301     2.260083
6904.82    11.456844     0.904461
6905.44    13.774910     2.771203
6906.05    24.176346     3.327020
6906.67    22.168678     0.156194
6907.28    13.949734     0.414781
6907.90    25.045494     3.091178
6908.51    14.563509     3.035684
6909.12    15.635969     2.977100
6909.74    13.618632     2.636717
6910.35    25.173454     0.164859
6910.97    18.426777     2.156935
6911.58     9.079107     5.382885
6912.20    22.278822     3.461047
6912.81    16.226263     1.794245
6913.43    15.967363     0.994203
6914.04    22.293934     2.823282
6914.65    23.411022     2.524166
6915.27    16.004456     0.738812
6915.88    15.764147     3.075849
6916.50    23.264133     2.441040
6917.11    17.258373     2.701614
6917.73    12.546052     6.400853
6918.34    28.865366    -0.124733
6918.96    11.524239     3.804340
6919.57    19.870476     3.274844
6920.18    21.044754     3.603153
6920.80    17.274073     4.061017
6921.41    20.117500     4.247731
6922.03    22.104729     3.023745
6922.64    20.654671     2.623049
6923.26    19.819239     6.431728
6923.87    15.769061     5.909460
6924.48    10.348022     2.197273
6925.10    24.590714     2.620014
6925.71    17.524231     3.702028
6926.33    17.725290     4.775842
6926.94    17.856588     4.399039
6927.56    19.455294     2.099363
6928.17    29.802525     0.949571
6928.79    21.741779     0.882551
6929.40    24.998829     0.000407
6930.01    16.647713     1.896517
6930.63    18.386215     1.113236
6931.24    16.236855     1.979339
6931.86    16.433573     0.298631
6932.47    14.219478     2.504251
6933.09    14.584981     3.609040
6933.70    18.728067     0.697855
6934.32     9.947646     6.038723
6934.93    16.951183     2.020146
6935.54    14.051417     4.793688
6936.16    18.694399     2.602692
6936.77    13.060917     3.248885
6937.39    15.211918     3.195934
6938.00    20.273283     1.810138
6938.62    15.502982     4.103476
6939.23    15.650475     4.290827
6939.85    17.881086     1.039572
6940.46    15.002777     3.985471
6941.07    17.800062     2.050353
6941.69    17.150034     4.557390
6942.30    24.289104     3.079921
6942.92    17.837105     2.437718
6943.53    16.545845     2.177870
6944.15    24.070234     1.391318
6944.76    14.654698     3.040680
6945.38    11.374290     1.948969
6945.99    16.986500     2.979230
6946.60    13.989199     4.112612
6947.22    19.045254     2.154346
6947.83    16.885963     3.549098
6948.45    10.997568     2.681083
6949.06    13.143109     3.498245
6949.68    13.831015     6.309530
6950.29    11.567655     4.489210
6950.90    17.610624     2.776148
6951.52    17.978649     0.986286
6952.13    15.781477    -0.043403
6952.75    20.060154     1.494915
6953.36    13.757792     3.039991
6953.98    11.244053     1.977353
6954.59    17.104959     0.303612
6955.21    18.591188     0.052317
6955.82    15.007574     1.760892
6956.43    12.801957     4.167785
6957.05    14.167404     2.893461
6957.66    18.921066     0.105387
6958.28    15.773149     0.660386
6958.89    14.607802     1.922694
6959.51    15.376748     1.754035
6960.12    13.943017     3.245736
6960.74    15.826239     3.209131
6961.35    19.348343     0.335660
6961.96    19.325388     0.116651
6962.58    23.345531     1.068668
6963.19    23.318043     1.948402
6963.81    12.593828     3.051536
6964.42    17.476255     1.461438
6965.04    16.397186     0.879360
6965.65    18.096640     0.877602
6966.27    26.409206     1.727043
6966.88    24.835924     3.529385
6967.49    16.188396     4.005446
6968.11    15.702853     4.059300
6968.72    20.978765     5.011154
6969.34    12.656651     5.185369
6969.95    11.635785     2.920482
6970.57     4.995527     5.668601
6971.18    14.529389     2.891316
6971.80    20.853374     2.094207
6972.41    16.140083     3.574627
6973.02    14.821026     2.276338
6973.64     9.229485     3.945788
6974.25    10.414862     1.911551
6974.87    17.785728     2.001924
6975.48    18.271969     1.153582
6976.10    17.637915     1.262677
6976.71    19.358093     5.066153
6977.32    15.779602     4.995245
6977.94    12.447172     4.680599
6978.55    15.367260     5.801762
6979.17    18.691088     3.424725
6979.78    20.080965     1.783717
6980.40    21.058617     1.014605
6981.01    22.353580     2.809827
6981.63    14.928799     4.058304
6982.24    15.980669     3.088318
6982.85    16.179136     3.893089
6983.47    18.609028     2.486012
6984.08    20.332870     1.107134
6984.70    15.633598     1.936686
6985.31    15.599068     0.853180
6985.93    19.201763     1.050008
6986.54    18.036747     1.980689
6987.16    14.385273     3.872431
6987.77    12.818644     3.472043
6988.38    14.204733     1.345659
6989.00    11.617571     1.550421
6989.61    13.889755     1.699002
6990.23    21.819710     0.775975
6990.84    19.653957     1.261255
6991.46     9.627725     2.104560
6992.07    11.790136     1.944836
6992.69    22.006046     1.925405
6993.30    12.888582     4.839938
6993.91    16.319675     3.462173
6994.53    17.916527     3.194904
6995.14    21.850483     1.066158
6995.76    25.280613     0.844274
6996.37    21.250214     1.368709
6996.99    18.685785     0.511007
6997.60    19.122713     3.006797
6998.22    20.084007     0.940642
6998.83    18.480204     1.920975
6999.44     9.281007     2.214273
7000.06    25.163309     0.339136
7000.67    19.891285     0.418366
7001.29    17.546715     1.706059
7001.90    18.376999     2.028653
7002.52    15.367156     2.085756
7003.13    19.400093     1.721025
7003.74    15.311472     1.086943
7004.36    21.042583     1.985584
7004.97    16.240547     0.977894
7005.59    18.571053     2.785881
7006.20    26.170219     2.327113
7006.82    18.859903     1.997650
7007.43    18.634752     1.434009
7008.05    14.660471     1.166802
7008.66     7.211338     2.603277
7009.27    16.124046     2.640255
7009.89    19.019411     0.881639
7010.50    17.976725     2.108837
7011.12    16.388525     4.031859
7011.73     9.797729     2.065938
7012.35    18.194300     3.850146
7012.96    15.901615     1.634257
7013.58    13.792967     3.389418
7014.19    16.230614     3.271662
7014.80    17.065943    -0.305410
7015.42    18.519018     1.105967
7016.03    14.632182     1.269476
7016.65    17.325615     2.954257
7017.26    24.798729     0.078486
7017.88    21.524199     1.632391
7018.49    13.412672     2.183966
7019.11    17.598013     1.854362
7019.72    19.480059     2.328366
7020.33    21.526962     0.795837
7020.95    19.722958     0.893196
7021.56    13.553831     2.933649
7022.18    18.844694     0.751455
7022.79    14.035316     1.065328
7023.41    19.871424     2.002402
7024.02    15.824718     1.135690
7024.64    15.467014     0.958598
7025.25    21.692972     0.929578
7025.86    17.135601     1.510574
7026.48    12.648890     2.259869
7027.09    16.090101     1.461321
7027.71    13.215215     1.417490
7028.32    10.866412     3.032973
7028.94    18.049841     1.957145
7029.55    13.075850     2.014003
7030.16    17.298809     1.089012
7030.78    17.746487     1.090197
7031.39    15.968584     0.109956
7032.01    21.605167     1.080502
7032.62    25.957918     2.174391
7033.24    18.773386     2.127859
7033.85    15.176386     1.443511
7034.47    25.952969     0.063535
7035.08    27.387131     2.186523
7035.69    15.249596     3.019968
7036.31    11.733985     1.235762
7036.92    15.164555     0.651524
7037.54    17.119492     2.760545
7038.15    16.255499     1.628809
7038.77    16.503376     2.130216
7039.38    16.581078     1.799919
7040.00    11.990574     0.793196
7040.61     9.594545     4.064898
7041.22    15.348956     1.907957
7041.84    15.989907     2.994948
7042.45    20.407763     2.244134
7043.07    22.370823     0.652385
7043.68    11.320119     4.342165
7044.30     7.904340     2.715650
7044.91    15.631218     1.164800
7045.53    16.701767     1.707483
7046.14     9.840973     3.656085
7046.75    13.958011     6.590671
7047.37    24.997335     1.623016
7047.98    16.952669     2.017645
7048.60    21.646448     2.088671
7049.21    20.292791     1.028983
7049.83    22.678116     1.788690
7050.44    24.479080     1.504794
7051.06    19.538485     0.704050
7051.67    19.920334     1.655424
7052.28    24.872515     1.456113
7052.90    15.912324     1.808573
7053.51     6.861843     4.979788
7054.13    20.117201     1.919690
7054.74    13.095346     1.960107
7055.36    20.673306     1.953499
7055.97    11.460495     2.792891
7056.58    14.621303     2.670003
7057.20    27.956108     0.648382
7057.81    21.719410     0.427588
7058.43    11.473413     3.145249
7059.04    12.973245     3.442493
7059.66    12.330205     0.861861
7060.27    14.953152     2.072821
7060.89    11.126090     2.061751
7061.50    12.411625     0.921101
7062.11    15.584759     2.722925
7062.73    15.717017     1.825425
7063.34    13.769294     0.648506
7063.96    16.068256     1.549180
7064.57    17.408840     2.022277
7065.19    16.718401     2.174800
7065.80    18.531332     3.162182
7066.42    15.133677     2.876082
7067.03    20.905043     1.016203
7067.64    18.533293     1.904908
7068.26    17.019274     1.330353
7068.87    17.043928     0.620102
7069.49    21.414267     2.473391
7070.10    18.084196     2.200057
7070.72    12.041153     3.677043
7071.33    12.895381     5.231186
7071.95    10.506368     2.117405
7072.56    12.739543     5.042331
7073.17    19.078480     3.009643
7073.79     6.092689     4.134941
7074.40     8.661543     0.469943
7075.02    15.768217     2.093267
7075.63    13.305758     2.026118
7076.25     9.853717     1.252919
7076.86    10.332280     1.939818
7077.48     9.202626     2.726385
7078.09    11.946267     3.548832
7078.70    19.887957     1.087539
7079.32    12.023523     3.997838
7079.93    14.666302     1.239417
7080.55    13.551560     1.765744
7081.16    13.266994     1.317171
7081.78    15.466813     1.435141
7082.39    15.536123     2.302764
7083.00     9.524544     1.388683
7083.62    11.288980     1.497674
7084.23    18.128677     3.055483
7084.85     8.777712     1.868872
7085.46    16.001930     0.999695
7086.08    18.774620    -0.016610
7086.69    20.807165     1.473789
7087.31    12.295179     3.217535
7087.92    11.947907     1.061637
7088.53    17.101196     0.222335
7089.15    18.669970     1.092111
7089.76    16.164337     1.274380
7090.38    10.224052     1.955640
7090.99    14.087603     0.891620
7091.61    23.999031     0.999633
7092.22    19.095364     2.862647
7092.84    12.831776     2.543720
7093.45    24.527363    -0.107536
7094.06    16.150717     3.055071
7094.68     9.194500     4.888251
7095.29    15.993418     1.390358
7095.91    15.574456     0.104844
7096.52    15.136123     0.992845
7097.14    17.303373    -0.102862
7097.75    20.960400    -0.011000
7098.37    22.703812     1.801386
7098.98    11.931795     2.832422
7099.59    11.597222     3.369836
7100.21    21.824337     1.100722
7100.82    18.027262     0.094140
7101.44    14.348009     1.514296
7102.05    16.495829     2.168650
7102.67     9.970646     1.711859
7103.28    13.967694    -0.103114
7103.90     9.994671    -0.027655
7104.51    14.766258     0.986578
7105.12    10.409374     0.660867
7105.74     9.357616     3.504262
7106.35    14.063835     1.939438
7106.97    17.078176    -0.313915
7107.58    13.615629     2.157515
7108.20    12.208842     2.457597
7108.81    18.382448    -0.236566
7109.42    15.852265     0.013575
7110.04    15.044908    -0.033512
7110.65    13.938695     0.989089
7111.27    15.695736     0.060028
7111.88    15.102306     1.329320
7112.50    16.640709     1.697375
7113.11    14.377617     0.858271
7113.73     9.081304     3.393907
7114.34    14.237291     4.347911
7114.95    19.760651     0.968814
7115.57    12.920867     2.999578
7116.18    13.037212     0.224529
7116.80     9.747353     0.510357
7117.41     8.595862     2.634401
7118.03     9.734682     2.774725
7118.64     9.904655     0.815727
7119.26     7.785010     2.883924
7119.87    10.088230     4.012887
7120.48    16.330616    -0.138837
7121.10    13.889590     2.053827
7121.71    16.781624     0.076175
7122.33    21.417269    -0.256011
7122.94    12.962216     1.830058
7123.56    12.426565     0.725039
7124.17    17.520723     0.134255
7124.79    10.835024     1.952851
7125.40    10.113632     3.399084
7126.01    21.208483     2.343480
7126.63    15.884134    -0.094507
7127.24     7.891578     1.017934
7127.86     6.813800     1.100104
7128.47    23.624851     0.027533
7129.09    15.677286     0.804356
7129.70    15.791621     0.373719
7130.32    15.293333     0.429785
7130.93     8.202522     0.812796
7131.54    11.774001    -0.173739
7132.16    11.964857     0.110992
7132.77    10.854566     1.061922
7133.39     8.834277     1.991173
7134.00    14.956177     1.255350
7134.62    16.591082     0.104941
7135.23    15.043438     0.446809
7135.84    15.634330     1.696860
7136.46    15.571048     1.780439
7137.07    17.586527     0.629433
7137.69    20.600107    -0.063116
7138.30    14.669860     0.017835
7138.92    13.954964     0.899147
7139.53    14.815882     3.026810
7140.15    16.718390     0.693944
7140.76    21.531441     0.350010
7141.37    15.028297     1.259486
7141.99    13.560848     0.725874
7142.60    18.285648     1.667402
7143.22     9.478996     2.865393
7143.83     8.237196     0.896511
7144.45    12.839264     0.978978
7145.06    15.307849     1.056511
7145.68    19.816914     0.806892
7146.29    10.303639     1.990667
7146.90     6.922262     0.627490
7147.52    10.034167     1.385454
7148.13     7.696426     4.189661
7148.75    11.157223     2.879285
7149.36    17.312613     2.951474
7149.98    16.434872     1.975463
7150.59     6.725697     3.761557
7151.21     9.734154     3.459968
7151.82     9.587897     2.333011
7152.43    19.667892     1.488189
7153.05    22.331163     0.788454
7153.66     6.860926     1.356204
7154.28     9.609854     1.862307
7154.89    16.941084     1.042419
7155.51     9.325603     3.000390
7156.12    14.571199     0.557996
7156.74    23.138136    -0.185269
7157.35    17.399904    -0.130876
7157.96    15.393836     0.891498
7158.58    19.221392     2.177590
7159.19    14.620460     2.055066
7159.81    12.095180     1.827477
7160.42    14.984320     0.005430
7161.04    15.091620     0.802734
7161.65    14.947850     1.819470
7162.27    14.760727     2.271954
7162.88    12.016034     1.030937
7163.49    11.766027     2.428807
7164.11    12.456975     3.258445
7164.72     9.821818    -0.263139
7165.34     8.755858     1.084619
7165.95     3.939593     1.104113
7166.57     9.998996    -0.159155
7167.18     9.965749     2.287628
7167.79    14.321951     2.245059
7168.41    15.672625     0.190600
7169.02    11.016393     0.196248
7169.64    10.898771     1.300382
7170.25    11.256097     1.992355
7170.87    13.097227     1.047727
7171.48     7.311864    -0.011283
7172.10    11.321258     1.212051
7172.71    12.409851     3.700411
7173.32     6.774728     3.002672
7173.94     5.646802     2.326360
