#Wavelength     Flux    Sky Spectrum 
#[Angstrom]   [Counts]     [Counts]
4657.89    12.346821     8.438866
4658.48     8.706594    16.469767
4659.07     8.348169    20.101257
4659.66     6.369620    18.317507
4660.24     4.468726    15.523163
4660.83    14.494517    10.528724
4661.42    20.255495     8.729457
4662.01    17.774216     5.793472
4662.60    14.401635     4.364880
4663.18    13.918337     9.460381
4663.77    12.129025    14.743570
4664.36    14.095947    12.260486
4664.95    25.210257     4.760062
4665.54    25.954456     4.590991
4666.12     8.606602    13.187906
4666.71     7.892252    13.444622
4667.30    11.368940    12.338116
4667.89     8.872330    11.240453
4668.47     5.905636    11.580286
4669.06     8.007594    13.999801
4669.65     7.033870    12.050192
4670.24     2.940672    14.317466
4670.83    12.623031    12.869490
4671.41    28.054195     7.202420
4672.00    25.184750     6.993718
4672.59    15.536742     6.856072
4673.18    14.169962     8.410994
4673.77    14.084828    11.372123
4674.35    12.093325    11.522684
4674.94    15.810564     8.080570
4675.53    19.033676     8.471135
4676.12    17.021160     9.843055
4676.71    16.797270     9.802809
4677.29    15.814338     8.777425
4677.88     6.383148     9.741719
4678.47     5.028687    15.588147
4679.06     8.754196    12.120089
4679.64    15.317789     9.571244
4680.23    21.763172    13.153866
4680.82    22.995731    10.232454
4681.41    22.649885     8.281343
4682.00    19.239946     7.553337
4682.58    13.521771     9.168937
4683.17    11.192206    12.433230
4683.76    15.610387    13.069407
4684.35    19.001354    11.878928
4684.94    17.131855    13.730323
4685.52    14.003515    14.771276
4686.11    12.819308    12.743582
4686.70    13.641366    12.065521
4687.29    19.569740    11.025558
4687.87    15.397285    11.967886
4688.46     5.313459    13.308481
4689.05     3.538389    12.863568
4689.64     8.816903    12.865393
4690.23     8.970466    14.711941
4690.81    20.971497     9.357578
4691.40    22.274456     8.963343
4691.99     9.158758    15.305107
4692.58    16.185589    11.355030
4693.17    24.386129     8.659805
4693.75    27.280931     6.331111
4694.34    18.095121     9.941512
4694.93     6.118392    16.380983
4695.52     8.774092    13.291886
4696.11     7.921668    11.755949
4696.69     0.891455    18.245152
4697.28     3.695499    19.712095
4697.87    17.206299    11.508255
4698.46    22.956818     7.056762
4699.04    20.925877     8.342255
4699.63    18.863190     9.870991
4700.22    16.712709    12.769923
4700.81    13.464252    14.788122
4701.40    12.919531    11.135307
4701.98    16.564224    10.069277
4702.57    21.057173     9.160292
4703.16    21.249622     6.903430
4703.75    15.308969     7.870954
4704.34     9.983852    12.002243
4704.92    14.054676     8.875222
4705.51     8.104898    14.219851
4706.10     7.319921    15.157525
4706.69    16.499762     7.932631
4707.27    19.954208     7.987954
4707.86    26.976521     8.367237
4708.45    25.957424     6.411783
4709.04    14.242168    10.203209
4709.63     6.726516    15.302667
4710.21    11.038259    10.915441
4710.80    10.297722     6.196824
4711.39    10.853974     8.447629
4711.98    13.025506    13.250119
4712.57    14.307584    11.327770
4713.15    15.012607     4.925194
4713.74    15.608429     8.691525
4714.33    18.068338    13.322456
4714.92    15.479614    10.092080
4715.51    11.582946     7.364325
4716.09    10.731819    12.270927
4716.68     7.697834    12.663783
4717.27    22.942741     7.417792
4717.86    21.775244     6.801567
4718.44    12.840259     9.470430
4719.03    21.706692     8.930325
4719.62    19.874109     8.894939
4720.21     4.228117     9.847014
4720.80    13.056497     9.708247
4721.38    18.885099    10.980783
4721.97     4.840199    12.921955
4722.56    16.216854    10.216059
4723.15    11.168270    10.793787
4723.74     3.680277    14.437230
4724.32    12.761061    13.561568
4724.91    24.599222     8.424885
4725.50    16.235729     9.532827
4726.09     0.841512    16.896358
4726.67    -0.841627    15.555037
4727.26    16.272310    10.495412
4727.85    27.651857     9.999919
4728.44    16.288963     9.994608
4729.03    18.262169    10.560837
4729.61    15.697179    12.518725
4730.20    13.580832    12.366143
4730.79    17.539856    10.961690
4731.38    17.993357    11.009006
4731.97    19.030708     8.114570
4732.55    10.813831    10.509060
4733.14    10.384431    11.570868
4733.73    18.349897    10.016270
4734.32    16.835907    12.070647
4734.90    13.449441    12.429438
4735.49    19.529175    10.210220
4736.08    10.282214    18.801399
4736.67     2.418626    23.716242
4737.26    16.694794    12.381898
4737.84    15.805264    11.500933
4738.43    12.899549    14.303480
4739.02    14.034654    15.205672
4739.61    14.987407    12.640370
4740.20    16.570005    10.004971
4740.78    24.863255    11.921396
4741.37    30.942959    10.855168
4741.96    18.600206    13.564186
4742.55     9.532492    13.584645
4743.14    15.558722     8.687714
4743.72    14.151915    10.778612
4744.31    14.682497    12.209960
4744.90    19.855545    10.956844
4745.49    19.125471    12.390169
4746.07    16.623764    15.075769
4746.66    23.857849    12.127028
4747.25    23.247044     9.416866
4747.84    18.609383    14.714493
4748.43    16.274754    15.924059
4749.01    12.193444    13.144309
4749.60     7.034256    17.051165
4750.19    14.762566    17.320959
4750.78    14.623934    15.567685
4751.37    13.345458    11.356516
4751.95    12.986895    11.189646
4752.54     6.623635    16.037861
4753.13     6.396451    11.806809
4753.72    19.808680    10.092701
4754.30    15.402279    12.931866
4754.89     7.435969    13.393475
4755.48    19.261066     9.614224
4756.07    22.643055     7.989213
4756.66    13.898673     8.795690
4757.24    14.276146     8.870167
4757.83    15.978467    12.234856
4758.42    13.533631    15.818160
4759.01    19.104456    11.199194
4759.60    10.735403    11.881610
4760.18    12.730933     9.901958
4760.77    17.165972    10.658258
4761.36    13.561611    13.852808
4761.95    13.991048    10.988767
4762.54    14.718385    14.214548
4763.12    22.316442     8.402615
4763.71    20.205948     8.771127
4764.30    10.671471    15.460998
4764.89    13.135961     9.799782
4765.47    18.779379     4.764350
4766.06    23.424614    10.091976
4766.65    19.058962    13.826645
4767.24    11.382869    13.000818
4767.83    11.157095    14.048391
4768.41    15.035463    12.676753
4769.00    21.187929     7.611518
4769.59    19.882423     9.635102
4770.18    19.201708    13.275707
4770.77    24.207624    10.712800
4771.35    21.399065    10.758335
4771.94    19.305079    13.202417
4772.53    18.069590    10.020357
4773.12    13.538837     8.826831
4773.70    10.095480    12.122815
4774.29    13.839685    10.077394
4774.88    15.007247    10.250662
4775.47    20.948793     7.741930
4776.06    20.752361     8.667150
4776.64     7.444348    13.819465
4777.23    -0.034806    15.980154
4777.82    16.614336    19.307808
4778.41    27.087149    13.897639
4779.00    18.714424    11.064061
4779.58    12.540254    13.002404
4780.17    21.293217    10.937988
4780.76    22.247377    11.584043
4781.35    22.219610    13.473563
4781.94    24.024706    10.278366
4782.52    18.656212     6.486224
4783.11    11.113080     6.973924
4783.70    19.954760     6.657004
4784.29    21.586559    11.185032
4784.87    21.851938     9.757010
4785.46    22.836847     6.977929
4786.05    23.578228     9.117763
4786.64    27.228186     8.867800
4787.23    19.943966    11.832565
4787.81    24.220009     9.059437
4788.40    28.571619     5.119726
4788.99    21.955688     7.994361
4789.58    21.853039    11.082695
4790.17    26.130426     6.024107
4790.75    21.184027    12.337420
4791.34    18.103346    17.527700
4791.93    19.759850    14.665746
4792.52    16.992243    13.955390
4793.10    18.267645     9.669371
4793.69    13.628830    16.979736
4794.28    10.534326    21.392128
4794.87    18.624014    14.495594
4795.46    26.936703     8.918756
4796.04    16.347677    11.443343
4796.63     8.624126    12.657682
4797.22    24.524673    10.443775
4797.81    35.759907     8.790957
4798.40    22.694277    10.286344
4798.98    19.490578    12.097891
4799.57    25.759888     9.499289
4800.16    25.006786    10.626003
4800.75    21.399323    13.859840
4801.34    18.985832    15.391686
4801.92    13.714420    15.473786
4802.51    25.550354     5.572943
4803.10    29.853025     7.531379
4803.69    30.526186    10.161131
4804.27    28.954010     5.778793
4804.86    16.133358     8.912228
4805.45    21.221968     9.988230
4806.04    22.856705    10.244745
4806.63    23.271559     9.065619
4807.21    24.250378     8.183037
4807.80    19.998854    10.019853
4808.39    22.591900    10.530818
4808.98    14.031535    13.873824
4809.57    13.839497    10.972257
4810.15    18.515989     9.111095
4810.74    14.109082    15.067286
4811.33    21.982536    10.656621
4811.92    21.246069    11.143740
4812.50    13.521786    15.121305
4813.09    16.068260    13.417882
4813.68    27.848297    11.490107
4814.27    27.741470    18.854858
4814.86    19.785202    12.522905
4815.44    10.253203    10.921118
4816.03    16.879509    12.200810
4816.62    28.888582     9.039620
4817.21    15.980793    13.563000
4817.80    12.084528    17.167957
4818.38     9.854580    19.511360
4818.97    10.856359    16.675974
4819.56    19.911089     9.973625
4820.15    24.177380     8.893136
4820.74    15.670719    13.081865
4821.32    21.894127    14.101027
4821.91    29.244989    11.956326
4822.50    19.599560    12.780366
4823.09    10.998056    16.998941
4823.67    23.636707    15.984889
4824.26    17.943474    11.161888
4824.85    17.688850     7.585043
4825.44    24.494307     7.085250
4826.03    14.730042     9.147566
4826.61    14.532907    13.415955
4827.20    15.024604    14.422298
4827.79    12.285595    13.511673
4828.38    13.300793    12.744058
4828.97    16.930496    11.943014
4829.55    14.381811    11.170356
4830.14    23.974373    10.387167
4830.73    21.000248    13.286320
4831.32    18.380577    12.174762
4831.90    30.705595     6.981747
4832.49    26.940161    12.289991
4833.08    20.823210    15.026140
4833.67    16.050018    14.844989
4834.26    15.964722    15.321256
4834.84    20.605009    13.126751
4835.43    23.674053     7.871210
4836.02    27.169847    15.130571
4836.61    23.441978    15.042223
4837.20    21.840303    11.864267
4837.78    26.542953    14.195783
4838.37    23.499249    13.948392
4838.96    12.726926    16.412510
4839.55    13.128521    16.591354
4840.13    19.162775    13.237472
4840.72    21.444439    10.844756
4841.31    20.164234    11.964419
4841.90    11.366381    12.922936
4842.49    17.562302    13.172601
4843.07    18.054455    15.745546
4843.66    10.834269    18.045818
4844.25    19.066002    15.985863
4844.84    25.144575    15.509768
4845.43    20.664764    18.307178
4846.01    17.723618    14.543034
4846.60    20.895514     8.145928
4847.19    20.867712    10.127564
4847.78    16.098280    12.887765
4848.37    20.350496    12.042505
4848.95    23.417345    13.646081
4849.54    21.730461    16.210571
4850.13    19.666462    13.773911
4850.72    13.282449    11.620943
4851.30    17.498882    16.232296
4851.89    24.001844    13.773705
4852.48    24.720791     8.414989
4853.07    21.628201    11.271128
4853.66    17.420685    12.906258
4854.24    16.257612    13.460109
4854.83    15.258430    15.341284
4855.42    20.221718    15.375522
4856.01    28.147385    11.580247
4856.60    22.779966     9.797135
4857.18    20.639681    12.805744
4857.77    21.559471    10.008356
4858.36    24.725723     4.752318
4858.95    29.379759     5.249157
4859.53    28.540836     6.968642
4860.12    22.455242     6.099078
4860.71    21.231405     7.244811
4861.30    21.237865     9.879499
4861.89    14.710107    14.003567
4862.47     8.046546    19.998482
4863.06    13.309008    13.933363
4863.65    18.969309     8.222751
4864.24    20.432337    10.983778
4864.83    21.070013    12.281976
4865.41    21.860842     6.007906
4866.00    24.251156    13.161010
4866.59    25.995058    17.183104
4867.18    28.087248    10.179565
4867.77    25.541983     6.653839
4868.35    14.500149    14.714608
4868.94    13.617999    12.069155
4869.53    18.430908     7.363563
4870.12    25.318825    10.368784
4870.70    28.733574    13.803250
4871.29    22.417316    10.043247
4871.88    16.966671    13.634108
4872.47    15.042252    15.520938
4873.06    18.144508    12.150349
4873.64    25.616295     8.491055
4874.23    30.977882     7.951803
4874.82    26.937086     9.570724
4875.41    21.848618    10.304570
4876.00    24.122126     9.647596
4876.58    23.233671    12.146727
4877.17    11.231941    17.931435
4877.76    13.952582    15.516787
4878.35    13.303167    16.850779
4878.93    16.617903    16.735170
4879.52    24.491320    14.179022
4880.11    21.104738    17.004210
4880.70    20.719784    13.617430
4881.29    15.795595    14.523012
4881.87    21.660461    12.701352
4882.46    29.068485     7.780321
4883.05    18.070625    10.891766
4883.64    27.546196    11.785534
4884.23    27.658478    13.483759
4884.81    26.829908    13.139551
4885.40    30.378540    12.462638
4885.99    22.199600    15.968245
4886.58    23.982399    13.177444
4887.17    30.566139    10.861455
4887.75    30.896656    14.276091
4888.34    24.588896    18.333565
4888.93    19.156738    17.974430
4889.52    19.468920    19.398872
4890.10    31.354570    15.228876
4890.69    25.872746    13.797784
4891.28    13.588511    18.842356
4891.87    27.703091    20.054287
4892.46    20.954811    17.376997
4893.04    23.325510    12.379038
4893.63    27.629921     9.008766
4894.22    24.137878     9.236244
4894.81    28.840927    11.769625
4895.40    28.431080    14.712790
4895.98    33.785309     8.976663
4896.57    33.640480     9.887547
4897.16    28.193432    15.592534
4897.75    33.902912     8.122847
4898.33    27.623116    14.171824
4898.92    18.491907    13.750204
4899.51    20.852688     9.139219
4900.10    28.610939    10.033143
4900.69    28.006041     9.846679
4901.27    29.899977    13.637486
4901.86    27.164650    15.965690
4902.45    20.635305    13.561886
4903.04    22.225389    10.940425
4903.63    31.054962    12.779737
4904.21    21.767452    13.489871
4904.80    21.790833    11.537741
4905.39    22.937712    11.782227
4905.98    18.813780    14.020283
4906.57    31.531574    12.176953
4907.15    23.075546    12.127229
4907.74    19.881445    10.704610
4908.33    22.069181    10.794831
4908.92    14.336671    14.200240
4909.50    14.629840    13.414993
4910.09    27.112339    10.882224
4910.68    27.143932    13.160575
4911.27    24.176195    14.367239
4911.86    28.689653    10.927098
4912.44    19.186522    12.754517
4913.03    29.297897    11.962197
4913.62    35.361088    10.410195
4914.21    29.904379     9.675097
4914.80    25.555355    11.266584
4915.38    14.421276    17.933506
4915.97    22.235046    11.998348
4916.56    29.449493    10.479415
4917.15    24.529921    15.415717
4917.73    23.040588    12.975927
4918.32    29.981293    13.526773
4918.91    35.482437    15.457955
4919.50    25.834406    19.125856
4920.09    17.528446    18.856071
4920.67    27.858646    12.070188
4921.26    26.934206    13.579151
4921.85    32.787632    12.426629
4922.44    39.689186    14.144743
4923.03    35.591507    17.804943
4923.61    30.848389    13.156979
4924.20    38.033722    14.432228
4924.79    33.904770    13.895231
4925.38    26.556614    11.168006
4925.97    26.779114    12.590662
4926.55    22.499474    16.058903
4927.14    20.710464    11.715774
4927.73    30.733295     9.957708
4928.32    29.957260    15.701016
4928.90    14.094780    21.219393
4929.49    18.971542    18.778837
4930.08    31.345388    13.927946
4930.67    25.018885    13.605105
4931.26    13.234610    15.110121
4931.84    18.558069    13.927115
4932.43    27.040319    13.153966
4933.02    28.650820    12.245765
4933.61    31.118299    12.167437
4934.20    32.203545    13.395675
4934.78    28.001049    12.973338
4935.37    33.333118     8.410856
4935.96    37.039730    10.479879
4936.55    33.543571    14.062077
4937.13    28.135643    13.905464
4937.72    26.075462    13.082383
4938.31    25.652426    11.114876
4938.90    32.743286    12.555510
4939.49    32.336723    16.832214
4940.07    24.767609    17.547306
4940.66    28.068262    13.164791
4941.25    22.550285    14.777287
4941.84    27.957384    12.505426
4942.43    35.782776    12.676572
4943.01    31.702747    19.257675
4943.60    32.444302    16.050283
4944.19    35.915649    10.514692
4944.78    37.063324     8.364530
4945.36    29.411926    11.525557
4945.95    17.844753    16.038776
4946.54    21.002989    14.350387
4947.13    28.876671    14.724260
4947.72    31.032364    13.874396
4948.30    30.164007    12.086434
4948.89    33.797897    13.979497
4949.48    39.326546    12.509649
4950.07    44.089241    12.136772
4950.66    44.154202    13.623822
4951.24    36.172726    13.867436
4951.83    25.442509    12.932611
4952.42    27.091841    15.436977
4953.01    21.801739    19.014568
4953.60    22.507339    15.329890
4954.18    37.679600     7.810430
4954.77    35.426796    11.176626
4955.36    29.725384    12.840405
4955.95    33.366013    10.730440
4956.53    36.376999    12.260546
4957.12    30.998352    17.000477
4957.71    33.267857    13.077910
4958.30    27.108540    11.955255
4958.89    23.075850    13.400057
4959.47    29.195847    12.797634
4960.06    32.923843    11.996512
4960.65    32.608887    13.117186
4961.24    35.550697    15.766247
4961.83    35.826145    14.808998
4962.41    26.860298    12.063504
4963.00    19.571842    15.583286
4963.59    28.844517    14.893667
4964.18    29.214922    10.720884
4964.76    24.542507    14.835169
4965.35    32.055885    24.000362
4965.94    31.304956    15.216434
4966.53    32.600216    12.865910
4967.12    30.889475    15.851767
4967.70    25.502161    16.130177
4968.29    29.252914    16.192919
4968.88    38.351742    12.790238
4969.47    29.417770    17.036715
4970.06    25.312794    16.422771
4970.64    34.899792     7.832526
4971.23    23.443798    14.468099
4971.82    24.282650    19.686729
4972.41    23.714025    19.595644
4973.00    26.328438    19.072176
4973.58    39.997810    20.984404
4974.17    28.149261    23.346474
4974.76    32.239208    19.238739
4975.35    39.285366    14.888966
4975.93    28.945734    18.044090
4976.52    22.536322    23.124710
4977.11    34.356560    16.895006
4977.70    40.605129    16.897316
4978.29    36.637341    21.859022
4978.87    30.407509    22.085169
4979.46    19.817856    24.212793
4980.05    23.872772    19.874290
4980.64    35.628975    15.780313
4981.23    41.565643    14.416215
4981.81    41.042091    11.976387
4982.40    40.272430    15.901320
4982.99    33.950706    21.482649
4983.58    29.552528    20.330107
4984.16    32.296574    14.624474
4984.75    35.747059    14.717189
4985.34    45.552071    16.200001
4985.93    45.600155    18.268326
4986.52    35.476955    18.614264
4987.10    31.980055    16.993830
4987.69    37.651798    19.168228
4988.28    38.896255    15.211059
4988.87    35.806602    11.421981
4989.46    39.408978    13.259605
4990.04    49.677414    13.241775
4990.63    42.443001    11.317787
4991.22    27.671219    15.952772
4991.81    19.623362    23.926664
4992.40    23.235067    23.865082
4992.98    35.896553    15.868546
4993.57    38.317490    17.746401
4994.16    40.274639    16.132202
4994.75    42.036110    10.031836
4995.33    32.415314    15.665785
4995.92    36.131897    14.206367
4996.51    36.209766    17.627857
4997.10    31.006466    22.195261
4997.69    29.894974    20.017883
4998.27    27.886795    22.930128
4998.86    37.899918    19.006771
4999.45    42.976845    12.471226
5000.04    40.273674    11.125958
5000.63    46.469341    13.668762
5001.21    48.130329    16.304014
5001.80    43.871124    13.374090
5002.39    36.114738    11.283927
5002.98    28.781221    15.161832
5003.56    27.622778    16.820957
5004.15    30.192377    17.470081
5004.74    36.584183    15.614697
5005.33    42.607574    12.695153
5005.92    40.626083    13.693098
5006.50    32.898422    17.311768
5007.09    31.508680    17.144217
5007.68    36.894428    14.158919
5008.27    41.092091    14.091006
5008.86    41.860985    16.949224
5009.44    42.728008    14.486137
5010.03    39.900227    13.655035
5010.62    41.774040    16.078156
5011.21    49.301125    16.465174
5011.80    22.910686    24.091879
5012.38    24.203960    20.108978
5012.97    45.539188    14.231124
5013.56    37.680996    21.088846
5014.15    25.945152    19.662785
5014.73    47.137779    13.192525
5015.32    54.199253    11.102141
5015.91    30.216627    13.143874
5016.50    25.392689    13.624219
5017.09    32.000443    18.058525
5017.67    37.357132    17.106853
5018.26    37.718815    12.037057
5018.85    35.052799    11.008849
5019.44    32.464802    11.009227
5020.03    37.476414    16.098713
5020.61    43.687981    14.101238
5021.20    39.939861     7.008500
5021.79    30.772354    13.335297
5022.38    40.943726    11.305216
5022.96    41.481495    12.418629
5023.55    32.701866    18.753471
5024.14    38.780968    18.915434
5024.73    36.434052    22.279799
5025.32    35.003277    21.550739
5025.90    35.851460    15.997600
5026.49    35.053383    13.013103
5027.08    39.211983    15.525479
5027.67    46.985737    15.436042
5028.26    44.823833    12.760532
5028.84    36.234467    12.231150
5029.43    37.603371    14.041357
5030.02    39.674427    11.348817
5030.61    40.393105     9.677272
5031.20    43.249077    13.675592
5031.78    44.076481    17.030754
5032.37    34.630939    10.185131
5032.96    45.965240    11.831867
5033.55    47.064430    17.126064
5034.13    30.888746    14.512533
5034.72    44.279594    10.137983
5035.31    39.751629    12.791009
5035.90    30.240271    15.897691
5036.49    32.842606    16.133308
5037.07    37.492268    15.417824
5037.66    41.861259     8.900488
5038.25    35.358150    11.272694
5038.84    30.459583    14.281345
5039.43    39.093971     6.937576
5040.01    42.906151     6.484031
5040.60    37.810883    13.100075
5041.19    47.817055    13.395872
5041.78    56.292000    10.411305
5042.36    25.190762    17.846910
5042.95    31.362793    10.717194
5043.54    42.810867     8.841861
5044.13    35.974533    15.408381
5044.72    37.510704    12.194387
5045.30    41.437176    14.017206
5045.89    28.952232    18.728359
5046.48    26.948864    19.616041
5047.07    45.011482    16.992727
5047.66    30.333679    17.400671
5048.24    27.062456    19.297392
5048.83    32.781017    17.540892
5049.42    34.838394    12.625613
5050.01    46.444504    11.564428
5050.60    38.721848    15.360320
5051.18    29.876177    20.029276
5051.77    30.962315    19.081905
5052.36    30.543020    12.431336
5052.95    37.075722    13.166665
5053.53    29.820738    17.228754
5054.12    17.355551    21.223211
5054.71    21.735435    24.018463
5055.30    29.592930    20.033428
5055.89    31.241232    14.513219
5056.47    34.159489    11.030172
5057.06    41.189236    12.280119
5057.65    40.494846    19.699108
5058.24    39.866844    21.207464
5058.83    39.601009    19.627800
5059.41    39.127934    20.064137
5060.00    41.557957    19.427290
5060.59    43.658791    16.045050
5061.18    47.028610    15.426396
5061.76    45.534016    17.126432
5062.35    36.395760    15.337482
5062.94    39.437378    11.647739
5063.53    47.296638    11.888722
5064.12    44.275288    14.583092
5064.70    31.194485    15.960345
5065.29    30.088104    17.976254
5065.88    41.712242    16.501959
5066.47    46.185829    17.235008
5067.06    41.051384    19.879890
5067.64    47.986927    13.803055
5068.23    45.047039    15.585538
5068.82    35.332890    17.461868
5069.41    36.004124    12.468524
5069.99    45.289814    10.802309
5070.58    33.611984    12.715119
5071.17    30.368282    11.725702
5071.76    39.406540     8.766884
5072.35    35.082924    11.270038
5072.93    40.650055    18.112595
5073.52    41.487450    19.692009
5074.11    38.254093    16.230017
5074.70    44.581848    14.989277
5075.29    47.344940    16.153402
5075.87    36.661163    18.607975
5076.46    28.662468    20.281363
5077.05    34.993923    19.003355
5077.64    37.530243    15.370803
5078.23    39.813389    16.545275
5078.81    38.502537    17.654795
5079.40    37.363564    16.041540
5079.99    48.030853    18.213093
5080.58    42.892117    14.300431
5081.16    36.445831    15.329046
5081.75    41.462624    20.946194
5082.34    41.652340    14.858795
5082.93    38.222839    15.262554
5083.52    42.950462    14.056052
5084.10    47.361794    12.952982
5084.69    39.095581    23.187126
5085.28    47.142403    21.047426
5085.87    45.968292    16.840696
5086.46    44.768749    16.738226
5087.04    65.225685    14.974336
5087.63    55.945713    16.933983
5088.22    49.827953    14.634354
5088.81    53.842857    12.402917
5089.39    47.355553    16.855087
5089.98    44.034500    16.637947
5090.57    40.345943    20.052448
5091.16    41.958344    20.706694
5091.75    48.992630    13.072077
5092.33    42.475609    13.603943
5092.92    38.957481    17.352798
5093.51    40.044792    17.370375
5094.10    38.986530    14.985457
5094.69    40.530720    16.012701
5095.27    47.288273    14.038164
5095.86    54.001335    11.511945
5096.45    54.865139    12.045505
5097.04    51.974693    12.689038
5097.63    54.341923    14.514070
5098.21    47.604038    16.997065
5098.80    33.292568    17.956696
5099.39    36.663895    16.374516
5099.98    46.859947    15.295354
5100.56    46.970535    14.698767
5101.15    39.399281    15.256183
5101.74    40.787201    16.558138
5102.33    46.604301    10.924868
5102.92    34.977295    13.731724
5103.50    21.024117    23.929195
5104.09    36.870701    22.793526
5104.68    49.494804    17.990913
5105.27    50.616871    14.478880
5105.86    53.548813    12.781742
5106.44    60.735336    12.769474
5107.03    44.170559    15.533661
5107.62    34.207104    18.066841
5108.21    39.938141    17.619774
5108.79    39.459118    15.935595
5109.38    35.819771    18.337389
5109.97    42.796028    17.973722
5110.56    50.026520    17.676973
5111.15    45.851334    20.366798
5111.73    53.544647    11.042276
5112.32    49.670509     9.493210
5112.91    42.394119    15.991691
5113.50    54.047943    16.048702
5114.09    59.342495    16.850916
5114.67    49.603722    20.184980
5115.26    41.808544    21.960646
5115.85    48.560669    19.245461
5116.44    50.978401    16.201378
5117.03    47.653446    17.258780
5117.61    48.216377    19.088757
5118.20    52.162239    18.025934
5118.79    42.616261    18.682360
5119.38    37.481617    18.945761
5119.96    33.581600    19.359417
5120.55    26.810909    20.968594
5121.14    40.157314    20.808323
5121.73    41.515751    22.379726
5122.32    32.433975    24.162642
5122.90    36.575764    21.242062
5123.49    49.759666    14.287425
5124.08    57.250031    14.315260
5124.67    50.410004    17.205397
5125.26    40.023632    15.079889
5125.84    47.074257    14.457064
5126.43    41.462780    16.381681
5127.02    38.661201    14.507836
5127.61    54.749977     9.044341
5128.19    48.769814    13.181341
5128.78    43.645382    19.851789
5129.37    46.834316    20.076683
5129.96    52.532681    13.292131
5130.55    66.664780     8.334053
5131.13    60.202801    13.969135
5131.72    47.688503    20.949677
5132.31    52.781597    19.130154
5132.90    51.323750    18.351196
5133.49    37.230278    24.828228
5134.07    40.306759    23.069427
5134.66    62.814686    10.161995
5135.25    45.653236    17.806389
5135.84    37.808708    19.647154
5136.43    46.120373    18.393351
5137.01    41.527020    26.012829
5137.60    34.433392    17.333900
5138.19    37.459972    14.863955
5138.78    45.680576    17.516491
5139.36    48.854214    12.988923
5139.95    51.221813    18.992580
5140.54    55.932259    23.065672
5141.13    48.793060    20.149494
5141.72    29.593763    18.809200
5142.30    37.565773    22.570349
5142.89    43.952240    20.349339
5143.48    42.712166    15.732160
5144.07    48.064266    18.634691
5144.66    42.199249    19.521118
5145.24    49.198814    14.827456
5145.83    61.651051    12.398420
5146.42    53.412239    17.563669
5147.01    47.123390    17.418161
5147.59    48.362392    18.257710
5148.18    52.811707    19.669254
5148.77    54.511547    14.719707
5149.36    47.870968    13.115570
5149.95    42.060257    18.273745
5150.53    43.638779    20.363396
5151.12    48.460194    12.610291
5151.71    49.089725    15.911716
5152.30    50.039978    21.717230
5152.89    54.638298    22.030163
5153.47    58.680195    21.706638
5154.06    58.149612    16.197798
5154.65    56.596169    12.152979
5155.24    55.851990    14.333854
5155.83    52.943901    17.668858
5156.41    49.019321    17.189903
5157.00    43.561413    15.675014
5157.59    40.026440    17.171841
5158.18    45.332756    21.043530
5158.76    54.095821    23.163164
5159.35    49.844193    22.536434
5159.94    39.009384    20.980125
5160.53    49.651539    20.271635
5161.12    47.275887    18.947079
5161.70    35.260384    15.740304
5162.29    36.790859    13.002430
5162.88    47.752628    15.538968
5163.47    48.539986    18.759655
5164.06    48.798660    18.465614
5164.64    57.860039    16.058435
5165.23    51.874973    16.815334
5165.82    49.173115    16.038664
5166.41    45.252064    15.291986
5166.99    27.564766    18.626020
5167.58    24.263483    20.091217
5168.17    44.084114    16.296221
5168.76    57.531986    12.992195
5169.35    41.830978    16.383760
5169.93    42.136318    18.393072
5170.52    46.344700    16.954363
5171.11    41.299694    13.476549
5171.70    37.585743    12.023774
5172.29    36.690899    20.093531
5172.87    50.625587    20.902277
5173.46    66.127594    11.522722
5174.05    55.374187    11.247777
5174.64    55.772552    13.578422
5175.22    61.733124    16.153271
5175.81    56.860027    19.038473
5176.40    51.283051    18.912052
5176.99    48.226959    15.432064
5177.58    44.332375    16.540411
5178.16    37.283669    23.814026
5178.75    31.532848    24.293980
5179.34    33.012794    20.624645
5179.93    41.544498    15.546362
5180.52    51.241402    10.332930
5181.10    55.467094     9.304147
5181.69    52.758492    11.204126
5182.28    48.534023    13.311700
5182.87    47.394459    14.033451
5183.46    43.294495    13.386243
5184.04    40.164417    12.898487
5184.63    45.218571    13.001665
5185.22    58.361710    12.953373
5185.81    65.077507    13.632707
5186.39    61.612495    16.448492
5186.98    56.998615    17.890327
5187.57    58.703999    13.960861
5188.16    46.786636    18.377035
5188.75    43.960709    21.334513
5189.33    58.893387    15.094830
5189.92    50.163666    15.725847
5190.51    46.195721    18.443779
5191.10    55.542572    20.745464
5191.69    61.829109    22.214907
5192.27    58.806011    17.804430
5192.86    46.314034    19.487932
5193.45    36.314125    25.574345
5194.04    40.506943    24.487045
5194.62    48.624386    22.439112
5195.21    53.818882    21.937538
5195.80    56.248177    21.975983
5196.39    58.169506    21.268692
5196.98    55.313198    20.756641
5197.56    50.327526    26.063505
5198.15    51.097813    31.981565
5198.74    60.791553    24.419254
5199.33    61.946438    21.991800
5199.92    53.161797    25.888309
5200.50    46.167999    26.966616
5201.09    47.701614    27.301523
5201.68    49.298298    25.836216
5202.27    49.205425    22.133160
5202.86    50.249599    18.343750
5203.44    45.790649    17.969816
5204.03    38.924042    20.231680
5204.62    37.316097    22.074986
5205.21    44.074680    21.377573
5205.79    50.214798    19.734732
5206.38    54.729313    16.439627
5206.97    53.867668    12.976897
5207.56    40.687706    13.994059
5208.15    35.848129    16.856821
5208.73    42.099899    17.987604
5209.32    45.310249    17.042017
5209.91    36.790295    17.158506
5210.50    35.694801    15.962844
5211.09    49.060150    12.162335
5211.67    62.310287     9.599792
5212.26    58.304771    15.190075
5212.85    53.305706    17.751179
5213.44    53.738182    14.963396
5214.02    47.250568    18.389784
5214.61    47.042122    23.302919
5215.20    53.276146    20.846813
5215.79    57.952793    15.945524
5216.38    56.745342    25.106026
5216.96    47.171021    27.030977
5217.55    35.771988    22.690269
5218.14    33.330757    24.115307
5218.73    43.552761    20.232637
5219.32    54.924160    20.613802
5219.90    60.503777    23.863594
5220.49    62.788437    18.859844
5221.08    62.097076    19.210739
5221.67    50.722809    25.854239
5222.26    34.831936    31.037151
5222.84    36.318016    28.222618
5223.43    47.687553    17.338997
5224.02    51.096088    16.165066
5224.61    43.373245    28.557045
5225.19    45.255852    23.186073
5225.78    46.600407    18.189035
5226.37    45.217045    19.871290
5226.96    49.901577    15.814537
5227.55    53.115391    13.997281
5228.13    49.596455    13.751901
5228.72    41.715801    15.187874
5229.31    37.614365    21.755997
5229.90    40.930984    21.984770
5230.49    38.405197    20.194237
5231.07    27.305256    22.907587
5231.66    34.398281    21.075333
5232.25    53.791451    16.671726
5232.84    53.861549    16.599873
5233.42    25.661180    21.682360
5234.01    32.389534    19.180447
5234.60    41.360027    17.415304
5235.19    30.863218    19.995377
5235.78    40.876728    16.448277
5236.36    62.315369    13.682762
5236.95    64.925041    14.403505
5237.54    49.176231    15.913556
5238.13    60.480141    16.450741
5238.72    49.995361    18.240070
5239.30    30.198664    18.652300
5239.89    50.251202    15.165792
5240.48    45.831398    17.621542
5241.07    39.364201    20.242666
5241.66    54.248535    17.948753
5242.24    57.474571    16.276436
5242.83    48.221844    16.091969
5243.42    46.937912    21.157160
5244.01    57.058144    28.066507
5244.59    45.798508    20.839540
5245.18    44.125130    17.122213
5245.77    54.207638    21.217268
5246.36    48.776215    18.987270
5246.95    58.482182    15.935332
5247.53    63.208717    14.738063
5248.12    54.927750    14.980940
5248.71    69.745544    16.768625
5249.30    65.646545    20.316191
5249.89    46.193756    23.454247
5250.47    45.852058    24.715269
5251.06    54.068420    26.654472
5251.65    59.857494    23.405638
5252.24    62.213181    16.713238
5252.82    64.191689    16.891968
5253.41    55.911736    21.013952
5254.00    46.069706    25.027500
5254.59    46.629932    25.277380
5255.18    52.937290    19.686066
5255.76    58.751160    18.646961
5256.35    62.555439    19.574778
5256.94    62.748684    14.974445
5257.53    50.498505    20.514750
5258.12    46.389606    27.545380
5258.70    57.995132    24.004185
5259.29    61.981758    14.761095
5259.88    61.810238    14.803799
5260.47    55.426773    22.726460
5261.06    40.897514    26.948385
5261.64    34.517403    25.064945
5262.23    42.012505    24.418070
5262.82    49.973064    24.803892
5263.41    44.891544    18.863070
5263.99    57.784271    15.150549
5264.58    67.098297    16.987206
5265.17    53.677837    19.961658
5265.76    55.618816    17.739170
5266.35    49.874943    14.884715
5266.93    37.571735    15.211368
5267.52    44.778698    16.956476
5268.11    48.988838    15.731609
5268.70    47.579536    15.559833
5269.29    47.025829    19.829226
5269.87    46.394573    23.534590
5270.46    49.368813    19.416222
5271.05    54.971138    13.544489
5271.64    54.897202    17.255848
5272.22    40.226467    26.472218
5272.81    35.459717    25.065399
5273.40    47.145466    15.958304
5273.99    47.624199    20.959038
5274.58    39.916138    22.239815
5275.16    42.852425    16.927973
5275.75    58.913857    14.990859
5276.34    55.153290    15.973632
5276.93    52.003105    17.796864
5277.52    55.781235    19.049669
5278.10    47.549091    18.800858
5278.69    59.001137    15.284062
5279.28    67.614693    12.933036
5279.87    50.404053    15.569195
5280.45    51.192211    18.104115
5281.04    67.359848    13.800484
5281.63    69.617737    11.553666
5282.22    45.685745    22.475658
5282.81    48.731846    19.586655
5283.39    58.976501    12.258827
5283.98    46.096867    17.380548
5284.57    40.660019    22.964655
5285.16    48.037498    23.595152
5285.75    56.490726    19.274845
5286.33    52.945946    14.767683
5286.92    40.077152    19.791510
5287.51    33.874123    26.259972
5288.10    37.080914    26.066072
5288.69    32.295502    24.857729
5289.27    44.377289    19.027136
5289.86    69.993652    13.915053
5290.45    76.137642    18.988171
5291.04    54.953423    25.869997
5291.62    41.041309    23.623741
5292.21    49.728027    16.069923
5292.80    48.709316    20.827305
5293.39    50.815453    21.985733
5293.98    57.540577    17.731131
5294.56    56.531952    18.351610
5295.15    55.089767    14.469736
5295.74    50.464851    16.763779
5296.33    44.056198    25.916775
5296.92    46.068989    20.901781
5297.50    38.905582    21.290129
5298.09    38.450645    25.841734
5298.68    62.435005    19.842390
5299.27    56.082581    20.973125
5299.85    41.760483    22.199043
5300.44    49.559490    16.190758
5301.03    57.700745    13.852680
5301.62    47.412777    14.532963
5302.21    34.498772    16.386354
5302.79    42.562702    18.141241
5303.38    48.796173    15.936029
5303.97    51.012138    15.854986
5304.56    53.033905    20.809896
5305.15    51.249775    22.814024
5305.73    59.657036    19.722052
5306.32    67.826744    17.016548
5306.91    57.507164    19.556379
5307.50    52.859303    19.618441
5308.09    54.330254    21.454922
5308.67    57.527332    24.204397
5309.26    66.517181    16.215885
5309.85    50.967491    19.890371
5310.44    34.666054    29.103247
5311.02    57.174595    21.538471
5311.61    54.451141    21.816418
5312.20    41.501598    24.823488
5312.79    47.590141    20.281055
5313.38    47.592564    19.420284
5313.96    45.317368    20.364182
5314.55    46.143433    21.158819
5315.14    48.505268    21.825136
5315.73    55.550659    16.559948
5316.32    64.426033    12.996449
5316.90    64.254623    16.671783
5317.49    46.039116    17.242672
5318.08    45.528763    14.497287
5318.67    61.639660    13.060889
5319.25    58.150425    16.342972
5319.84    54.843735    21.319517
5320.43    50.670799    22.720205
5321.02    40.517139    20.143761
5321.61    44.782768    21.228989
5322.19    55.400291    21.573795
5322.78    61.128475    21.101448
5323.37    60.806908    25.760746
5323.96    54.188313    26.646820
5324.55    50.001064    23.250828
5325.13    52.936562    21.153107
5325.72    49.951504    20.977585
5326.31    51.107723    20.712416
5326.90    57.000088    19.004257
5327.49    50.714264    17.759010
5328.07    47.637737    23.329479
5328.66    50.249287    29.353027
5329.25    49.371670    25.046949
5329.84    48.107193    15.847885
5330.42    45.993248    13.951288
5331.01    44.859413    20.718779
5331.60    50.779606    22.972858
5332.19    56.382328    26.697155
5332.78    59.442478    28.553396
5333.36    61.818996    20.151253
5333.95    55.346161    16.447910
5334.54    51.356476    18.861155
5335.13    55.947895    21.682119
5335.72    51.290855    23.995163
5336.30    50.160725    22.888664
5336.89    52.802803    21.041225
5337.48    47.178265    23.220264
5338.07    61.754463    19.703743
5338.65    71.437828    17.719633
5339.24    49.974438    25.060795
5339.83    46.893005    25.316971
5340.42    61.174774    17.135456
5341.01    66.077271    12.959829
5341.59    47.848648    23.445755
5342.18    42.807358    22.852646
5342.77    47.553421    17.414501
5343.36    38.675556    26.210609
5343.95    45.142975    20.983679
5344.53    58.092773    13.215063
5345.12    60.952267    17.635288
5345.71    61.616627    18.784021
5346.30    62.507629    17.347157
5346.89    66.602127    17.030874
5347.47    74.808609    18.254108
5348.06    73.494331    20.973524
5348.65    63.245235    25.162382
5349.24    54.671448    26.799063
5349.82    54.377186    17.875950
5350.41    56.616951    15.095640
5351.00    56.998013    22.980656
5351.59    57.190403    23.737387
5352.18    52.503189    22.808695
5352.76    49.244423    22.893362
5353.35    55.420761    21.369244
5353.94    58.915890    20.590307
5354.53    59.050247    21.414959
5355.12    55.075233    22.891819
5355.70    38.802029    23.870775
5356.29    27.853226    26.756041
5356.88    33.819084    26.637049
5357.47    47.321423    17.283978
5358.05    44.511517    15.402762
5358.64    38.285297    17.990208
5359.23    47.443798    15.901595
5359.82    49.665878    19.782207
5360.41    43.088028    23.625895
5360.99    40.769108    22.072775
5361.58    51.496262    20.740812
5362.17    46.800461    18.642363
5362.76    32.216370    16.990210
5363.35    35.489605    17.996027
5363.93    36.869778    16.720425
5364.52    36.804901    16.546446
5365.11    45.250511    19.807039
5365.70    56.747910    18.547293
5366.29    56.671631    16.557728
5366.87    50.003315    17.003620
5367.46    56.449394    17.425814
5368.05    50.821423    19.497738
5368.64    43.704033    20.935352
5369.22    57.699745    20.259634
5369.81    56.726906    25.544069
5370.40    50.885002    22.882776
5370.99    55.012516    10.380071
5371.58    48.962093    17.767653
5372.16    44.312538    28.444698
5372.75    45.992672    28.935146
5373.34    43.096539    26.475029
5373.93    41.956940    22.111689
5374.52    44.577267    18.668026
5375.10    42.853901    21.688381
5375.69    25.494907    34.351364
5376.28    26.542225    37.104118
5376.87    52.748634    23.086729
5377.45    49.366714    16.911604
5378.04    38.525402    17.698879
5378.63    37.993195    22.463709
5379.22    38.619125    30.151371
5379.81    49.352432    23.530077
5380.39    62.991718    14.667352
5380.98    65.054085    20.157194
5381.57    57.775345    19.217789
5382.16    51.929600    19.644360
5382.75    54.518898    25.953400
5383.33    61.528728    19.754408
5383.92    64.135727    12.561071
5384.51    54.970341    15.500916
5385.10    39.283302    24.586563
5385.68    50.298016    23.455925
5386.27    68.448502    17.404510
5386.86    59.509331    19.233681
5387.45    46.008209    21.574526
5388.04    44.274635    19.884956
5388.62    56.616798    17.825478
5389.21    73.160538    22.910973
5389.80    77.904343    21.444284
5390.39    67.147331    14.907866
5390.98    54.524204    18.242952
5391.56    60.635979    16.766264
5392.15    68.696930    16.048319
5392.74    59.673260    26.302273
5393.33    65.193771    28.101925
5393.92    64.069916    25.829666
5394.50    48.216866    26.221272
5395.09    61.725128    21.014252
5395.68    75.254944    16.844831
5396.27    68.587791    18.101000
5396.85    58.406940    21.418606
5397.44    55.285332    25.282185
5398.03    57.277821    24.035593
5398.62    56.771370    16.153151
5399.21    52.154179    16.430882
5399.79    42.445332    22.989389
5400.38    31.779808    28.395933
5400.97    31.698433    31.957960
5401.56    45.750130    27.965393
5402.15    56.985733    21.999847
5402.73    44.305763    27.289667
5403.32    46.519783    27.146271
5403.91    67.686951    18.951004
5404.50    77.827019    15.337417
5405.08    68.574142    20.400047
5405.67    57.513844    23.792080
5406.26    60.756916    19.423378
5406.85    66.930496    20.505022
5407.44    59.622185    24.129396
5408.02    46.117378    25.003614
5408.61    54.279842    23.858833
5409.20    62.370049    18.866196
5409.79    59.646679    17.451727
5410.38    56.160915    26.475216
5410.96    53.075748    24.872477
5411.55    55.386459    18.579552
5412.14    66.882324    20.919003
5412.73    79.829071    17.481787
5413.32    79.417137    13.514728
5413.90    66.794670    14.930702
5414.49    63.500187    14.884943
5415.08    52.230331    21.697414
5415.67    40.079281    31.094141
5416.25    55.696198    27.026937
5416.84    59.118702    21.216627
5417.43    46.483540    19.987160
5418.02    44.497261    20.672003
5418.61    52.987648    21.764233
5419.19    70.868507    21.836760
5419.78    88.888802    20.323349
5420.37    84.104012    18.462507
5420.96    62.772366    18.216234
5421.55    47.135513    19.916237
5422.13    55.229561    20.728123
5422.72    66.653549    15.105521
5423.31    68.979591    12.455396
5423.90    65.885765    25.585352
5424.48    56.407848    32.363705
5425.07    58.903419    24.666883
5425.66    76.363297    16.029232
5426.25    56.860573    29.447046
5426.84    40.129971    38.405586
5427.42    65.043320    23.820606
5428.01    89.842659    15.777234
5428.60    88.080452    17.315235
5429.19    65.200974    21.956474
5429.78    50.450096    26.022150
5430.36    54.671612    27.314383
5430.95    59.340076    28.269030
5431.54    45.279083    31.133768
5432.13    48.772644    27.792215
5432.72    59.791412    22.217407
5433.30    56.669094    21.203548
5433.89    65.868088    19.136614
5434.48    79.427452    16.102787
5435.07    81.419098    16.512648
5435.65    74.833893    22.905619
5436.24    69.251450    21.267784
5436.83    67.995514    13.995262
5437.42    65.571396    19.882648
5438.01    58.362564    23.757488
5438.59    55.509331    19.341839
5439.18    65.508926    15.087624
5439.77    67.351509    17.659657
5440.36    55.560802    24.512302
5440.95    43.973328    29.415922
5441.53    52.524662    30.597183
5442.12    53.852596    29.591394
5442.71    38.493408    28.956293
5443.30    47.604546    29.712959
5443.88    58.407124    26.984442
5444.47    56.999763    20.006212
5445.06    61.333206    15.667290
5445.65    65.916168    22.235582
5446.24    63.268581    30.158854
5446.82    55.550892    24.529240
5447.41    59.610126    19.602243
5448.00    69.480888    20.436586
5448.59    70.099174    23.270870
5449.18    64.437515    25.939774
5449.76    68.490601    25.187504
5450.35    82.992065    22.106026
5450.94    81.631966    23.058403
5451.53    72.437531    18.730350
5452.12    67.087799    11.040082
5452.70    65.332550    15.904261
5453.29    67.942116    19.780899
5453.88    72.253708    15.522777
5454.47    72.612106    11.150388
5455.05    66.608444    17.623711
5455.64    67.794479    23.967070
5456.23    80.725288    19.595167
5456.82    69.220306    28.903179
5457.41    49.093880    46.374760
5457.99    49.904495    55.475029
5458.58    65.403107    56.480129
5459.17    62.395103    65.626846
5459.76    45.896446    79.776550
5460.35    66.397995    71.935623
5460.93    81.953224    64.557831
5461.52    68.372932    67.022400
5462.11    51.865349    63.996098
5462.70    58.545887    60.013470
5463.28    69.851837    57.693008
5463.87    56.103405    54.493690
5464.46    51.494659    48.592190
5465.05    63.238171    36.506111
5465.64    71.972610    23.506586
5466.22    59.297523    29.609447
5466.81    57.986988    31.788563
5467.40    78.860382    18.713001
5467.99    71.654564    23.388304
5468.58    58.912624    29.980381
5469.16    58.096462    26.125198
5469.75    50.862160    25.292913
5470.34    45.336094    29.863108
5470.93    55.273991    31.767717
5471.52    80.675346    23.973045
5472.10    86.308372    23.265928
5472.69    70.226036    27.056309
5473.28    58.121502    23.725992
5473.87    64.908882    23.958435
5474.45    73.490517    26.156340
5475.04    69.910240    24.479614
5475.63    75.620552    22.975313
5476.22    73.268806    25.431194
5476.81    60.044212    29.811733
5477.39    71.950333    28.757982
5477.98    72.278175    28.752642
5478.57    55.112190    31.009117
5479.16    64.311729    27.158115
5479.75    63.614616    20.831886
5480.33    56.565105    19.176085
5480.92    79.619690    23.849504
5481.51    87.388138    19.950851
5482.10    81.017586    13.909333
5482.68    86.038261    19.285301
5483.27    73.013580    22.505543
5483.86    57.413563    27.037411
5484.45    59.380466    37.604897
5485.04    51.434578    38.579548
5485.62    53.006470    31.375219
5486.21    71.803200    26.820356
5486.80    69.374489    31.939547
5487.39    68.460754    29.882504
5487.98    83.412598    18.302448
5488.56    92.590057    17.982822
5489.15    93.804848    24.247952
5489.74    86.426208    29.136154
5490.33    71.023170    29.537561
5490.91    67.416916    24.258587
5491.50    80.153336    18.606241
5492.09    93.361069    19.521782
5492.68    82.812035    24.688812
5493.27    75.671715    26.708927
5493.85    93.625809    22.663485
5494.44    82.613426    22.550619
5495.03    60.939476    24.114233
5495.62    63.721939    23.798048
5496.21    80.795143    26.412136
5496.79    92.483673    25.773838
5497.38    87.983917    21.151396
5497.97    73.735504    22.686508
5498.56    66.992516    23.742762
5499.15    74.963188    21.006882
5499.73    87.759659    19.895473
5500.32    87.262726    20.289906
5500.91    82.236511    19.873756
5501.50    92.066414    18.318172
5502.08    89.769661    22.546768
5502.67    80.519699    27.114841
5503.26    85.176064    22.956608
5503.85    87.576874    17.462387
5504.44    77.343483    17.911570
5505.02    63.330326    24.037703
5505.61    72.923882    25.438059
5506.20    85.846405    25.428335
5506.79    79.743073    26.423021
5507.38    68.129486    20.543472
5507.96    61.559635    18.965389
5508.55    67.826347    25.618603
5509.14    87.878258    27.169024
5509.73    91.715767    24.791214
5510.31    78.987549    24.002888
5510.90    80.131966    27.476160
5511.49    78.166580    29.498634
5512.08    71.910843    26.617390
5512.67    74.692917    22.331551
5513.25    67.560440    28.279722
5513.84    60.287601    36.449665
5514.43    72.484879    32.405365
5515.02    83.676414    25.536180
5515.61    92.396660    24.586737
5516.19    95.972557    29.386429
5516.78    65.365028    28.699293
5517.37    42.441837    25.293600
5517.96    64.286255    23.547840
5518.55    96.335274    18.749569
5519.13    106.747467    15.562342
5519.72    89.299782    20.879143
5520.31    67.030731    34.802834
5520.90    56.672165    37.171837
5521.48    59.846581    25.277962
5522.07    64.963364    20.172220
5522.66    65.606171    23.365273
5523.25    67.304459    28.113842
5523.84    78.379112    27.570578
5524.42    82.786751    23.333120
5525.01    79.795830    21.075792
5525.60    78.721901    24.136648
5526.19    70.469315    24.844551
5526.78    61.028713    24.115688
5527.36    64.287140    25.847740
5527.95    80.778397    24.780071
5528.54    88.275322    22.759787
5529.13    76.641785    23.594919
5529.71    77.176170    25.147203
5530.30    82.709724    22.342983
5530.89    81.083969    18.519392
5531.48    82.359650    27.136196
5532.07    77.375282    29.297092
5532.65    62.300751    21.921936
5533.24    52.285660    31.206907
5533.83    63.061527    32.107975
5534.42    83.747513    22.022373
5535.01    84.707497    30.883846
5535.59    83.943817    33.612034
5536.18    83.654976    26.956581
5536.77    70.130760    31.917950
5537.36    70.365723    29.634739
5537.95    81.708260    24.165480
5538.53    81.218094    32.516762
5539.12    79.639969    34.468590
5539.71    85.656677    29.403433
5540.30    93.321541    29.824572
5540.88    79.962692    34.180111
5541.47    67.841316    30.688847
5542.06    81.705704    18.135788
5542.65    95.662369    21.892075
5543.24    94.999924    30.060360
5543.82    82.926186    28.205061
5544.41    74.935921    29.995100
5545.00    63.766693    32.100971
5545.59    51.981422    29.420927
5546.18    63.316673    26.414688
5546.76    76.560333    26.574833
5547.35    80.596954    27.153584
5547.94    90.727165    22.426418
5548.53    89.765388    25.149637
5549.11    77.984192    35.014553
5549.70    78.430588    35.857796
5550.29    86.666580    28.272827
5550.88    93.209076    20.763142
5551.47    92.404526    22.075661
5552.05    85.126740    30.485798
5552.64    78.636986    34.737770
5553.23    78.438377    27.181894
5553.82    75.130981    24.935261
5554.41    73.536568    26.964024
5554.99    79.481003    25.409615
5555.58    76.650650    30.951569
5556.17    76.798035    36.199982
5556.76    90.097099    31.499878
5557.35    90.703003    26.636518
5557.93    90.806915    24.631903
5558.52    101.199440    25.366100
5559.11    97.691017    30.270195
5559.70    90.789772    33.297771
5560.28    88.145103    32.061222
5560.87    73.925186    33.543518
5561.46    67.013824    37.802074
5562.05    79.617928    38.421120
5562.64    96.845589    28.664433
5563.22    101.740829    23.392965
5563.81    90.381889    28.831190
5564.40    75.508804    33.819153
5564.99    76.066689    29.078541
5565.58    80.806480    21.973198
5566.16    64.588585    27.655434
5566.75    63.697048    32.853737
5567.34    77.621635    33.034630
5567.93    76.403580    33.654095
5568.51    75.870323    30.179762
5569.10    81.855476    25.720121
5569.69    87.040024    25.541271
5570.28    88.363968    22.432796
5570.87    86.554771    26.166433
5571.45    82.795700    42.977776
5572.04    75.571106    47.346401
5572.63    72.193153    72.034149
5573.22    78.131462    145.013916
5573.81    83.410568    221.127487
5574.39    70.591400    340.775177
5574.98    56.220081    502.222534
5575.57    102.180862    571.499634
5576.16    130.316711    608.061523
5576.75    94.543434    666.287109
5577.33    83.526459    662.508667
5577.92    96.083969    590.628540
5578.51    104.737755    488.618103
5579.10    101.406853    399.501404
5579.68    86.392159    325.605865
5580.27    67.759499    258.257355
5580.86    59.201141    193.852921
5581.45    69.379059    135.293976
5582.04    86.968285    88.113388
5582.62    88.154182    57.873749
5583.21    78.656204    45.974915
5583.80    79.640053    41.687878
5584.39    102.260864    31.370268
5584.98    100.303329    27.230291
5585.56    77.592880    30.211155
5586.15    76.093323    31.681742
5586.74    91.088730    36.851833
5587.33    90.394913    40.989288
5587.91    60.468369    36.192051
5588.50    67.148689    31.208202
5589.09    95.122307    31.484877
5589.68    94.011337    34.380070
5590.27    79.521469    29.709335
5590.85    70.011887    26.414049
5591.44    70.156982    33.415028
5592.03    67.267441    36.057686
5592.62    68.873451    33.065109
5593.21    79.618240    29.659601
5593.79    79.244133    27.590061
5594.38    66.254753    32.731834
5594.97    58.442055    39.624516
5595.56    78.445724    27.757320
5596.14    80.575790    24.523933
5596.73    51.987438    38.467041
5597.32    56.275314    30.701450
5597.91    70.203758    26.797838
5598.50    68.358421    37.705406
5599.08    67.004158    31.124649
5599.67    74.397583    26.099440
5600.26    81.142036    32.751488
5600.85    70.435776    33.468300
5601.44    67.849960    30.885860
5602.02    81.865517    29.018085
5602.61    89.645599    27.797358
5603.20    73.174858    32.212982
5603.79    63.546768    38.059273
5604.38    102.431160    35.407333
5604.96    107.509804    30.650757
5605.55    78.953880    27.841669
5606.14    83.506554    26.158775
5606.73    88.202759    26.530672
5607.31    73.795006    29.422628
5607.90    57.332745    32.486832
5608.49    75.517693    28.560165
5609.08    94.547371    28.008911
5609.67    71.008125    39.014610
5610.25    68.829842    33.308868
5610.84    89.068558    22.469006
5611.43    93.241310    30.357828
5612.02    76.703262    39.940262
5612.61    71.138924    35.184135
5613.19    91.491699    18.452559
5613.78    85.993690    18.310230
5614.37    69.806152    29.628275
5614.96    71.431267    35.564919
5615.54    71.249847    35.519650
5616.13    79.889450    33.508312
5616.72    97.511230    31.630760
5617.31    85.752571    27.309298
5617.90    75.219254    24.830338
5618.48    83.431549    28.080370
5619.07    69.019409    34.111526
5619.66    70.273239    33.214970
5620.25    98.361786    24.789640
5620.84    91.712196    22.830940
5621.42    76.450699    29.318520
5622.01    76.934059    35.105167
5622.60    75.350220    28.341961
5623.19    79.067322    26.005272
5623.78    83.355652    32.781666
5624.36    68.091347    31.877382
5624.95    61.209484    29.428894
5625.54    73.663376    29.991865
5626.13    84.570702    29.769945
5626.71    87.152031    30.902210
5627.30    84.988754    31.990290
5627.89    84.146927    29.030922
5628.48    77.033440    28.228054
5629.07    68.910370    26.756994
5629.65    70.673126    18.597122
5630.24    61.393318    23.060772
5630.83    54.649796    32.011028
5631.42    78.023819    23.692455
5632.01    90.246277    23.120567
5632.59    77.018562    32.793373
5633.18    62.089344    35.661026
5633.77    79.555962    32.731579
5634.36    96.202934    27.202736
5634.94    67.321823    23.278851
5635.53    50.218170    28.882673
5636.12    57.673382    33.827717
5636.71    68.282814    27.901720
5637.30    80.245865    30.179874
5637.88    90.594528    36.554348
5638.47    95.531448    33.798409
5639.06    95.037369    27.614597
5639.65    84.468018    23.442932
5640.24    68.981819    24.533270
5640.82    75.761032    31.951361
5641.41    88.588959    35.825001
5642.00    84.324356    30.309650
5642.59    75.316566    27.424574
5643.18    77.564705    30.141684
5643.76    91.848740    32.597656
5644.35    94.948227    26.082378
5644.94    85.336258    24.282137
5645.53    74.825684    33.785709
5646.11    76.201744    35.305576
5646.70    85.008163    34.414284
5647.29    90.869507    36.315586
5647.88    88.368080    30.532858
5648.47    88.052170    27.150429
5649.05    90.611946    33.072174
5649.64    79.028839    37.730694
5650.23    68.930328    30.175697
5650.82    69.882866    18.998476
5651.41    68.912788    29.322418
5651.99    68.258568    35.643112
5652.58    73.298630    25.695745
5653.17    82.610519    22.751617
5653.76    78.292053    30.186014
5654.34    65.223694    37.915359
5654.93    72.191772    33.294781
5655.52    84.992241    26.788021
5656.11    89.020119    26.907639
5656.70    83.760010    31.544258
5657.28    68.612045    35.506756
5657.87    58.977676    36.994049
5658.46    73.785797    37.890247
5659.05    79.260773    37.675484
5659.64    74.065475    34.919052
5660.22    87.314682    29.632206
5660.81    93.451279    27.863171
5661.40    87.887604    30.093969
5661.99    88.447281    31.282955
5662.58    81.068939    30.097765
5663.16    73.091690    31.329573
5663.75    83.938560    38.244362
5664.34    91.944122    35.331142
5664.93    98.122284    26.597050
5665.51    112.624283    27.944288
5666.10    98.594269    32.574974
5666.69    78.884438    32.631302
5667.28    94.169388    28.034597
5667.87    87.361626    31.968088
5668.45    69.665443    38.156578
5669.04    82.095718    32.943001
5669.63    78.996254    26.119888
5670.22    63.792130    28.189524
5670.81    69.245796    38.544731
5671.39    88.571068    36.591438
5671.98    101.790009    29.622850
5672.57    91.926559    34.410767
5673.16    62.915768    41.463188
5673.74    51.748276    40.995029
5674.33    80.935974    32.187366
5674.92    102.058212    28.214565
5675.51    108.150803    30.780247
5676.10    109.642960    33.832375
5676.68    92.424309    32.494827
5677.27    73.197906    29.528805
5677.86    74.087868    30.644571
5678.45    88.344002    37.431938
5679.04    99.447601    37.307926
5679.62    98.052132    25.770887
5680.21    94.186111    24.749941
5680.80    91.213791    30.005848
5681.39    86.079384    32.159706
5681.98    74.590698    37.832382
5682.56    71.055893    40.932621
5683.15    81.983536    39.390617
5683.74    86.881287    47.170418
5684.33    81.662537    55.451897
5684.91    78.439209    53.929714
5685.50    93.392136    49.128052
5686.09    85.268433    52.791473
5686.68    51.403358    60.548759
5687.27    70.225655    48.146309
5687.85    89.326958    44.773911
5688.44    72.962502    62.448219
5689.03    81.493942    61.101227
5689.62    78.043640    53.751408
5690.21    50.939510    55.751839
5690.79    66.409103    54.860657
5691.38    79.691711    49.903038
5691.97    67.927979    43.734997
5692.56    84.797318    37.863995
5693.14    100.350868    33.687141
5693.73    92.846535    35.229202
5694.32    88.149879    46.051319
5694.91    80.732491    48.771397
5695.50    71.171631    39.619373
5696.08    77.502083    37.126976
5696.67    89.622063    38.385925
5697.26    94.123657    38.920044
5697.85    86.169853    41.280518
5698.44    66.012085    46.803051
5699.02    53.630375    51.903423
5699.61    76.942566    49.205826
5700.20    100.475929    38.294655
5700.79    95.783699    31.811060
5701.38    70.810547    44.484558
5701.96    62.742630    46.086166
5702.55    78.566269    31.290874
5703.14    87.979744    28.783808
5703.73    79.699799    35.845119
5704.31    67.046272    40.995064
5704.90    74.259781    36.679543
5705.49    88.763252    30.177485
5706.08    94.999138    30.005413
5706.67    87.579353    38.649010
5707.25    74.105415    45.392189
5707.84    68.041275    41.860703
5708.43    79.570305    29.349174
5709.02    96.141914    24.156021
5709.61    98.705154    25.974936
5710.19    80.157303    21.991709
5710.78    78.153816    22.845158
5711.37    85.776802    30.284775
5711.96    66.903503    34.758022
5712.54    57.672047    33.898117
5713.13    65.295876    32.015621
5713.72    66.460449    33.948521
5714.31    69.940193    32.010830
5714.90    75.099731    29.052450
5715.48    76.170547    33.764275
5716.07    94.220444    37.134560
5716.66    105.083244    34.653675
5717.25    73.159531    30.275288
5717.84    57.354675    32.244461
5718.42    75.136444    36.011974
5719.01    96.808144    32.793461
5719.60    99.504585    33.495049
5720.19    89.144661    37.119678
5720.77    84.863884    35.963024
5721.36    82.117012    37.979572
5721.95    78.675102    38.474548
5722.54    78.204285    29.964184
5723.13    85.191422    29.290358
5723.71    87.142578    31.662729
5724.30    73.009872    25.752766
5724.89    68.817795    33.049377
5725.48    75.823929    44.522923
5726.07    80.126656    39.123997
5726.65    86.922401    32.802876
5727.24    94.905258    32.067825
5727.83    97.657623    32.433590
5728.42    94.051865    29.891008
5729.01    92.428001    25.342394
5729.59    97.289948    22.781736
5730.18    90.759819    25.146147
5730.77    80.057716    28.169067
5731.36    84.117043    25.820015
5731.94    102.095894    19.987686
5732.53    113.019043    21.414621
5733.12    100.149254    34.203506
5733.71    82.752007    37.016983
5734.30    72.994667    34.016235
5734.88    74.674759    36.936680
5735.47    88.779526    33.458748
5736.06    98.155746    27.361439
5736.65    90.886040    28.619442
5737.24    89.843346    33.623047
5737.82    96.118614    37.453239
5738.41    96.961838    36.980942
5739.00    86.775650    32.492184
5739.59    81.693726    26.993809
5740.17    91.010628    25.118706
5740.76    87.013863    30.607891
5741.35    84.646759    31.996408
5741.94    96.121407    24.778524
5742.53    77.947693    33.311573
5743.11    66.039925    40.341663
5743.70    94.332504    29.330698
5744.29    98.677788    33.272896
5744.88    84.751091    37.961819
5745.47    82.307152    24.658823
5746.05    79.195732    22.189730
5746.64    77.262253    29.634626
5747.23    80.660965    35.265472
5747.82    78.888412    42.964867
5748.41    74.052597    45.364368
5748.99    75.007294    37.255234
5749.58    86.372772    30.772675
5750.17    91.167259    33.926182
5750.76    84.813042    42.483879
5751.34    99.506546    38.513412
5751.93    100.037369    34.438946
5752.52    64.870361    40.593250
5753.11    59.235298    36.082359
5753.70    84.907715    27.540424
5754.28    105.250626    28.588671
5754.87    88.469490    36.000195
5755.46    67.256027    38.389713
5756.05    72.219849    32.663055
5756.64    76.585747    33.475098
5757.22    81.227676    32.458359
5757.81    88.424576    26.993835
5758.40    79.726532    40.179684
5758.99    82.779251    48.165043
5759.57    109.463310    34.313568
5760.16    111.125771    31.811331
5760.75    96.053886    40.712025
5761.34    91.670959    43.018845
5761.93    103.292252    25.712343
5762.51    105.651802    14.900997
5763.10    89.191727    27.895401
5763.69    87.594841    39.278908
5764.28    92.543037    42.206722
5764.87    90.931030    41.152100
5765.45    94.065399    41.537769
5766.04    93.408401    43.765846
5766.63    88.201019    45.815460
5767.22    101.473770    45.660496
5767.81    117.193062    42.923923
5768.39    114.488556    42.734051
5768.98    95.927444    54.145416
5769.57    75.297684    59.334980
5770.16    67.992691    51.526943
5770.74    82.075134    54.869205
5771.33    101.137527    52.766964
5771.92    110.205322    35.400879
5772.51    112.000969    29.045004
5773.10    104.108513    30.191183
5773.68    90.558624    29.891905
5774.27    86.749229    31.367697
5774.86    86.395378    29.538336
5775.45    86.695747    23.580959
5776.04    99.182198    23.520926
5776.62    97.567596    27.226349
5777.21    77.435318    31.165623
5777.80    82.108940    37.208473
5778.39    86.278465    42.321930
5778.97    75.889893    43.257347
5779.56    88.604492    40.300106
5780.15    95.434074    37.208370
5780.74    80.379631    35.412460
5781.33    83.545242    32.065006
5781.91    103.509453    31.586946
5782.50    110.739304    36.916309
5783.09    76.576492    43.301441
5783.68    67.416245    40.151260
5784.27    102.367950    30.440990
5784.85    94.510361    34.444408
5785.44    73.787132    37.152973
5786.03    77.694038    30.435472
5786.62    84.555870    33.173412
5787.21    81.252914    39.991142
5787.79    71.667595    42.784904
5788.38    74.081818    44.315529
5788.97    89.768311    47.436569
5789.56    105.991005    50.874359
5790.14    104.857529    49.290058
5790.73    98.361511    46.009220
5791.32    94.915131    44.967514
5791.91    84.990501    45.937378
5792.50    79.706665    47.527462
5793.08    85.142616    45.834007
5793.67    90.133873    36.025703
5794.26    92.830391    26.101093
5794.85    91.746025    25.993027
5795.44    82.710167    38.246555
5796.02    75.247482    45.992390
5796.61    74.889267    40.905876
5797.20    75.868690    35.147446
5797.79    80.406120    34.483562
5798.37    87.443939    36.908134
5798.96    89.660500    35.306023
5799.55    95.245766    31.777693
5800.14    102.195595    30.033747
5800.73    92.813736    31.630299
5801.31    85.080818    40.342937
5801.90    93.350082    49.813927
5802.49    106.198669    44.144089
5803.08    97.550766    38.228481
5803.67    73.325981    43.141663
5804.25    76.775597    49.077789
5804.84    82.642601    44.286098
5805.43    73.740891    33.432617
5806.02    73.161415    37.569386
5806.61    77.335907    44.671005
5807.19    77.351295    41.846252
5807.78    72.516350    33.582569
5808.37    69.747719    36.574310
5808.96    76.476830    46.946671
5809.54    93.251015    37.482632
5810.13    97.413651    31.337208
5810.72    82.655602    40.262627
5811.31    73.471588    41.453495
5811.90    86.067665    37.689198
5812.48    104.006104    37.637890
5813.07    86.946243    42.274624
5813.66    72.218750    38.647308
5814.25    86.706581    28.384682
5814.84    106.814804    32.040821
5815.42    105.593208    36.331699
5816.01    91.132095    33.183342
5816.60    103.255035    34.101177
5817.19    107.224106    34.494755
5817.77    93.244049    31.273445
5818.36    104.383636    30.590645
5818.95    110.889656    35.939102
5819.54    97.116287    41.947994
5820.13    93.804016    37.451241
5820.71    101.842033    33.654144
5821.30    101.627724    38.331619
5821.89    75.835442    44.028530
5822.48    81.434280    39.114910
5823.07    117.756744    29.167473
5823.65    103.041573    35.543030
5824.24    86.555428    39.481419
5824.83    101.563339    34.077789
5825.42    108.905785    38.987495
5826.00    104.164536    41.186203
5826.59    94.879250    34.479656
5827.18    85.572289    33.618202
5827.77    73.553001    40.533970
5828.36    64.104507    47.781944
5828.94    71.204933    44.896671
5829.53    85.834099    36.590450
5830.12    92.305130    34.424908
5830.71    81.346001    45.798138
5831.30    69.550392    45.553009
5831.88    72.003929    31.569889
5832.47    87.810585    34.660229
5833.06    98.216003    36.914764
5833.65    92.137222    32.682831
5834.24    77.070847    43.639503
5834.82    70.414223    45.430988
5835.41    78.059639    32.584362
5836.00    89.763649    34.516525
5836.59    104.472496    38.115437
5837.17    111.587234    34.235992
5837.76    92.401642    35.052914
5838.35    68.797638    43.010548
5838.94    65.907692    48.315231
5839.53    89.805588    37.035698
5840.11    113.858482    28.454250
5840.70    116.771774    31.713285
5841.29    101.041489    32.728668
5841.88    91.472107    31.595181
5842.47    92.346489    33.545483
5843.05    82.483063    40.947128
5843.64    81.417702    41.508717
5844.23    91.718376    36.031258
5844.82    86.909348    40.419388
5845.40    83.424980    37.153625
5845.99    89.647537    24.493912
5846.58    91.168022    26.839680
5847.17    96.677071    34.869503
5847.76    104.905197    37.931671
5848.34    98.975006    37.228668
5848.93    92.595726    32.528793
5849.52    93.888733    28.887444
5850.11    94.261650    34.398735
5850.70    96.499992    36.335766
5851.28    97.404060    32.932190
5851.87    86.826973    39.321423
5852.46    79.701714    48.200581
5853.05    84.429787    50.205112
5853.64    89.738022    44.930870
5854.22    75.522301    43.874649
5854.81    57.768433    47.935074
5855.40    80.191895    44.307415
5855.99    95.340195    37.053806
5856.57    85.314156    34.778030
5857.16    91.759544    41.062126
5857.75    102.198586    41.221134
5858.34    102.261101    33.339249
5858.93    96.114479    33.467999
5859.51    84.240601    37.714035
5860.10    76.765991    39.947605
5860.69    88.479729    39.651672
5861.28    92.850853    38.604801
5861.87    85.073616    38.890976
5862.45    93.959518    40.754013
5863.04    111.253738    37.640789
5863.63    118.298042    34.679615
5864.22    104.464417    46.403770
5864.80    88.160965    54.453838
5865.39    80.390068    51.198166
5865.98    75.947571    50.819866
5866.57    83.146919    52.909634
5867.16    93.066643    54.870617
5867.74    82.483620    57.007545
5868.33    80.918007    58.442032
5868.92    95.433815    56.344391
5869.51    95.214310    48.528305
5870.10    85.848495    44.197876
5870.68    83.586609    44.145573
5871.27    96.601654    38.853943
5871.86    101.132668    35.378147
5872.45    90.569084    37.791603
5873.04    85.145996    41.059540
5873.62    85.617691    42.013069
5874.21    89.643700    41.038071
5874.80    97.052971    40.721848
5875.39    100.459015    38.696384
5875.97    94.588364    36.031509
5876.56    82.304756    37.107544
5877.15    80.722359    35.432514
5877.74    89.698082    33.768501
5878.33    88.445541    43.854393
5878.91    74.738831    52.448265
5879.50    69.331978    47.629898
5880.09    96.886948    31.537823
5880.68    111.111115    24.075611
5881.27    99.384010    31.516977
5881.85    100.001266    40.599770
5882.44    100.881058    45.536415
5883.03    92.441376    45.128975
5883.62    85.676605    41.651501
5884.20    92.090179    42.280449
5884.79    107.455017    50.498272
5885.38    114.118126    63.339890
5885.97    112.736580    74.832245
5886.56    107.290634    92.765900
5887.14    100.503952    130.308426
5887.73    99.782440    153.233704
5888.32    97.476784    160.352768
5888.91    77.130569    186.726379
5889.50    63.801830    199.185425
5890.08    72.388000    189.270477
5890.67    91.165695    186.049820
5891.26    99.014175    167.695419
5891.85    90.416824    133.951691
5892.44    80.925491    118.051086
5893.02    91.183281    124.049637
5893.61    106.058830    132.110794
5894.20    88.404648    119.181549
5894.79    78.817093    119.178741
5895.37    86.970230    133.856857
5895.96    77.705063    128.109772
5896.55    68.525009    130.408829
5897.14    74.669678    136.318939
5897.73    89.755707    104.717339
5898.31    95.433998    70.656693
5898.90    91.051117    58.113823
5899.49    92.093193    55.298122
5900.08    89.452736    45.739563
5900.67    82.093399    32.148079
5901.25    81.127541    32.117157
5901.84    82.418587    37.249741
5902.43    81.051628    40.937195
5903.02    76.574287    45.392834
5903.60    72.295708    50.334755
5904.19    78.773247    50.082298
5904.78    103.116440    39.422295
5905.37    112.294655    34.317535
5905.96    97.173935    37.973267
5906.54    82.707054    37.797199
5907.13    87.594368    33.813110
5907.72    106.900337    31.988064
5908.31    116.944244    37.311283
5908.90    108.063927    40.894623
5909.48    90.025887    39.005436
5910.07    83.427162    36.410973
5910.66    88.854881    36.524837
5911.25    96.005974    38.000633
5911.84    95.139832    37.142132
5912.42    99.861221    37.929951
5913.01    96.864349    43.044121
5913.60    64.936455    50.567730
5914.19    74.219803    53.588081
5914.77    110.106918    53.008465
5915.36    89.301971    55.358044
5915.95    67.417351    55.126476
5916.54    73.141418    50.934589
5917.13    80.101616    46.990665
5917.71    79.874458    42.712364
5918.30    76.995407    42.082466
5918.89    79.651955    49.237854
5919.48    81.115372    48.991673
5920.07    81.050613    40.845329
5920.65    84.599693    38.417469
5921.24    82.845566    39.948421
5921.83    76.891876    38.860481
5922.42    76.754578    32.884941
5923.00    79.836922    37.776432
5923.59    90.648720    44.905666
5924.18    112.417633    34.273350
5924.77    112.225739    37.471519
5925.36    89.083191    54.447430
5925.94    74.642471    56.267548
5926.53    84.971855    51.414497
5927.12    100.103790    45.662243
5927.71    87.982422    38.799675
5928.30    74.336365    43.866707
5928.88    75.349792    52.008396
5929.47    85.546234    43.601395
5930.06    93.682816    36.573597
5930.65    99.433968    38.162594
5931.23    108.029266    42.652863
5931.82    109.046616    55.102596
5932.41    104.894287    62.776718
5933.00    104.549721    50.505516
5933.59    94.354210    49.882767
5934.17    85.120895    58.018677
5934.76    97.465294    49.540268
5935.35    104.818146    45.828159
5935.94    94.811867    46.638981
5936.53    80.350159    35.693577
5937.11    88.679932    27.980093
5937.70    104.300331    31.665932
5938.29    95.133179    41.011230
5938.88    91.032127    41.924465
5939.47    92.523796    40.351295
5940.05    81.796677    48.135460
5940.64    85.002861    44.077682
5941.23    98.887344    33.568390
5941.82    100.041771    37.094738
5942.40    94.519493    42.977959
5942.99    92.138268    45.135967
5943.58    92.926888    45.936779
5944.17    75.813301    45.961967
5944.76    64.981812    47.323940
5945.34    89.245354    51.515839
5945.93    89.151306    54.243557
5946.52    73.681602    52.527401
5947.11    85.640884    46.550087
5947.70    89.405640    40.399296
5948.28    83.974426    38.019920
5948.87    90.855881    39.786953
5949.46    96.488861    38.839428
5950.05    90.361221    39.696636
5950.63    75.913071    48.003246
5951.22    74.723358    49.751217
5951.81    88.275749    48.242062
5952.40    99.249123    53.397034
5952.99    86.154312    55.907005
5953.57    62.115620    59.054359
5954.16    53.934116    66.906189
5954.75    62.080200    60.275131
5955.34    88.715843    44.985851
5955.93    119.637054    38.410938
5956.51    99.170456    38.708000
5957.10    74.458260    40.021221
5957.69    101.754227    39.077419
5958.28    97.324600    39.722446
5958.87    87.618454    38.160686
5959.45    120.151978    31.878057
5960.04    106.975960    33.015228
5960.63    83.265419    38.868633
5961.22    108.395226    42.372543
5961.80    103.023399    49.346642
5962.39    79.646255    52.614990
5962.98    84.774910    46.311501
5963.57    91.817612    45.650623
5964.16    87.036026    48.045834
5964.74    75.910027    45.114605
5965.33    74.804962    41.883369
5965.92    86.246155    39.427155
5966.51    100.677208    38.271488
5967.10    102.733673    43.472168
5967.68    88.487717    48.449799
5968.27    72.637100    46.141617
5968.86    87.340790    42.111919
5969.45    103.967468    39.591492
5970.03    93.609360    39.540573
5970.62    89.581573    42.443764
5971.21    85.269341    47.299637
5971.80    71.268211    50.366299
5972.39    75.237137    45.643288
5972.97    80.230713    40.265480
5973.56    75.592690    40.773830
5974.15    99.453110    40.709587
5974.74    115.600456    39.900490
5975.33    93.900620    40.023430
5975.91    80.632790    39.929424
5976.50    80.004242    43.941025
5977.09    79.252754    51.967331
5977.68    78.818474    52.450539
5978.27    86.855103    41.692799
5978.85    99.452896    30.084347
5979.44    93.760048    38.273392
5980.03    92.500496    40.456829
5980.62    106.892136    25.814560
5981.20    102.412537    33.742058
5981.79    96.000206    43.737514
5982.38    101.073250    36.230885
5982.97    94.305183    33.334351
5983.56    95.357536    33.835690
5984.14    108.082878    32.158497
5984.73    93.947227    32.677757
5985.32    82.647041    36.880100
5985.91    91.515938    42.434776
5986.50    86.390404    44.272408
5987.08    85.261765    41.576069
5987.67    95.711708    38.862286
5988.26    88.746323    42.543182
5988.85    85.395912    40.552643
5989.43    91.504135    33.056061
5990.02    77.482475    39.213867
5990.61    78.395279    39.598953
5991.20    102.527649    28.556160
5991.79    103.916451    30.428413
5992.37    100.120102    34.730129
5992.96    104.831268    32.261497
5993.55    101.783981    30.166885
5994.14    93.298492    30.346296
5994.73    88.033035    32.756866
5995.31    91.382027    36.948593
5995.90    94.785126    39.923576
5996.49    94.044785    38.265663
5997.08    94.917992    31.633656
5997.67    102.136688    31.604710
5998.25    101.585091    39.730515
5998.84    72.910980    44.870991
5999.43    57.655392    46.365166
6000.02    70.690277    43.136749
6000.60    84.112877    33.584648
6001.19    89.544174    29.482553
6001.78    88.006310    33.989563
6002.37    87.229767    37.904915
6002.96    104.977509    33.491707
6003.54    116.797890    30.082092
6004.13    81.883469    42.521271
6004.72    61.778168    46.062340
6005.31    80.901833    37.817535
6005.90    107.004364    36.236343
6006.48    115.073257    30.905764
6007.07    105.411354    26.137653
6007.66    95.666870    35.113712
6008.25    91.419785    36.599335
6008.83    92.138313    29.729027
6009.42    91.460403    30.980635
6010.01    75.884361    35.662022
6010.60    70.365005    39.250725
6011.19    101.177750    40.607136
6011.77    103.683334    37.653667
6012.36    80.308838    32.514072
6012.95    81.662186    29.463091
6013.54    104.609787    29.137644
6014.13    110.983467    32.739014
6014.71    78.773102    39.452950
6015.30    74.939247    41.236637
6015.89    96.275673    40.000599
6016.48    97.849594    41.105042
6017.07    83.925438    39.006062
6017.65    79.200806    34.277054
6018.24    95.504242    30.886852
6018.83    97.044937    28.125778
6019.42    89.547157    24.049019
6020.00    93.182533    20.903099
6020.59    91.668800    29.196777
6021.18    81.586548    37.541180
6021.77    75.647873    33.973770
6022.36    93.196777    33.629986
6022.94    107.216682    36.333069
6023.53    94.255417    34.414219
6024.12    89.662056    27.693743
6024.71    100.472443    23.953056
6025.30    109.836403    30.198555
6025.88    96.820389    43.178940
6026.47    83.902031    46.988701
6027.06    92.316101    37.307510
6027.65    101.927612    37.320206
6028.23    99.789490    39.635132
6028.82    91.179413    34.678699
6029.41    97.682457    34.157585
6030.00    102.399254    34.618996
6030.59    98.743683    30.794239
6031.17    116.630249    26.630972
6031.76    128.167099    24.659914
6032.35    112.103134    24.912552
6032.94    93.872139    25.435122
6033.53    87.408859    26.547127
6034.11    89.932419    28.697672
6034.70    87.498886    31.062868
6035.29    89.151230    32.217255
6035.88    101.504738    32.024185
6036.46    115.947533    31.989101
6037.05    121.567970    31.911840
6037.64    110.560806    31.102896
6038.23    85.059937    29.969736
6038.82    74.059769    33.273228
6039.40    89.845665    37.072487
6039.99    113.022240    30.946838
6040.58    114.108383    28.369343
6041.17    92.490219    34.834240
6041.76    80.272568    39.809025
6042.34    100.847618    35.429760
6042.93    124.998314    28.999062
6043.52    100.538589    34.866257
6044.11    83.322807    38.303608
6044.70    95.453705    31.712069
6045.28    104.675949    21.993971
6045.87    95.295670    18.049986
6046.46    84.027992    23.549837
6047.05    91.954239    34.235165
6047.63    75.147331    36.929951
6048.22    56.563099    33.934128
6048.81    86.915939    35.728565
6049.40    99.697342    34.192474
6049.99    87.011307    29.635328
6050.57    88.081970    29.146387
6051.16    96.043526    32.061447
6051.75    100.043839    32.629715
6052.34    96.623138    27.451641
6052.93    92.591484    25.364784
6053.51    87.927353    25.959948
6054.10    82.171265    25.455400
6054.69    85.275284    29.163561
6055.28    84.133835    33.429897
6055.86    69.880730    32.623604
6056.45    73.079948    30.477680
6057.04    89.595764    26.913836
6057.63    99.915588    22.414175
6058.22    100.006828    23.783966
6058.80    87.435410    31.342655
6059.39    73.548904    36.797726
6059.98    87.241585    27.348377
6060.57    89.561913    25.308371
6061.16    61.109039    40.480461
6061.74    64.304512    37.432983
6062.33    88.199638    24.479971
6062.92    101.349884    20.619007
6063.51    99.222679    26.282684
6064.10    89.384872    32.633411
6064.68    86.777527    34.012501
6065.27    103.167740    33.786865
6065.86    103.071327    34.463135
6066.45    78.728867    35.112545
6067.03    73.593483    31.997801
6067.62    81.261490    26.902596
6068.21    82.448082    27.479824
6068.80    72.188217    39.268761
6069.39    82.111053    35.571774
6069.97    103.845543    22.009315
6070.56    90.107338    35.513103
6071.15    73.829689    43.301262
6071.74    76.025055    34.979095
6072.33    83.513466    35.152073
6072.91    90.150528    34.914394
6073.50    95.192474    29.809471
6074.09    98.087975    26.125099
6074.68    89.095299    23.817934
6075.26    75.334137    23.028744
6075.85    74.169647    25.143360
6076.44    83.119080    30.408037
6077.03    93.993660    32.795574
6077.62    97.858582    28.367628
6078.20    89.040764    31.141029
6078.79    84.953812    33.309132
6079.38    96.078896    23.578304
6079.97    79.573578    25.531326
6080.56    65.138725    32.237862
6081.14    90.323509    28.377132
6081.73    93.524261    31.798817
6082.32    72.289879    37.337353
6082.91    57.532963    34.002361
6083.50    58.068111    31.791042
6084.08    76.384361    28.546671
6084.67    99.823059    22.414433
6085.26    96.964073    24.899393
6085.85    86.640419    29.864822
6086.43    91.489685    29.346073
6087.02    98.166771    27.350988
6087.61    97.801559    23.248962
6088.20    90.240158    20.491776
6088.79    82.987793    28.830029
6089.37    81.116600    34.531601
6089.96    82.171303    32.796242
6090.55    77.727554    38.588161
6091.14    74.618813    37.098106
6091.73    81.154251    25.505913
6092.31    96.406250    23.820227
6092.90    99.560745    25.025824
6093.49    92.041641    23.996672
6094.08    98.499626    25.482361
6094.66    107.565506    25.577742
6095.25    104.816376    26.065815
6095.84    89.348961    31.681839
6096.43    82.886475    28.164047
6097.02    83.764725    20.961824
6097.60    76.261581    26.469606
6098.19    82.399643    25.543877
6098.78    93.136490    19.924015
6099.37    85.285255    24.862741
6099.96    86.016281    27.758589
6100.54    102.927040    21.584982
6101.13    117.273857    12.882422
6101.72    100.785622    20.149212
6102.31    70.325684    30.718596
6102.90    59.731697    28.052332
6103.48    69.916138    33.129265
6104.07    76.338402    40.859776
6104.66    66.749840    38.339485
6105.25    72.982857    33.083523
6105.83    85.084801    29.039713
6106.42    86.026711    25.784960
6107.01    86.491585    21.643278
6107.60    76.576927    22.159395
6108.19    58.941093    28.281500
6108.77    63.746223    30.461346
6109.36    63.369564    31.989988
6109.95    47.643883    35.696564
6110.54    54.865856    36.613953
6111.13    70.394592    32.946365
6111.71    71.570930    29.897348
6112.30    56.250515    35.451458
6112.89    50.063251    37.625092
6113.48    57.923607    34.019772
6114.06    61.196297    34.706886
6114.65    73.078110    30.654865
6115.24    82.838333    22.831249
6115.83    65.788139    22.597147
6116.42    58.433022    25.875233
6117.00    66.480713    29.303072
6117.59    67.619591    31.649494
6118.18    70.552376    27.755110
6118.77    71.341309    25.417345
6119.36    63.020851    32.158108
6119.94    66.658478    29.189907
6120.53    81.875008    21.163797
6121.12    92.031555    21.507582
6121.71    86.081177    22.189661
6122.30    83.543678    23.852045
6122.88    95.386063    29.026411
6123.47    86.694633    31.060942
6124.06    71.112099    29.272953
6124.65    71.695503    27.756012
6125.23    79.210449    31.435022
6125.82    77.408409    36.295387
6126.41    69.610855    35.739582
6127.00    82.399376    27.858734
6127.59    89.300735    26.123064
6128.17    75.255455    34.374256
6128.76    64.978302    38.294781
6129.35    68.240562    34.424660
6129.94    76.892914    29.987059
6130.53    76.380814    35.072433
6131.11    84.073395    38.739605
6131.70    92.910423    34.840225
6132.29    78.835716    28.908182
6132.88    76.012573    29.557135
6133.46    84.056480    34.225067
6134.05    76.903961    33.925903
6134.64    78.083595    31.663588
6135.23    87.977379    31.106224
6135.82    90.175087    31.344757
6136.40    89.883286    24.165152
6136.99    90.020370    16.171110
6137.58    91.588646    16.518343
6138.17    98.485939    17.707769
6138.76    99.821960    23.405737
6139.34    91.002655    33.386604
6139.93    92.393845    29.728148
6140.52    96.080490    28.933655
6141.11    90.383385    40.148796
6141.69    82.180939    37.170387
6142.28    78.589706    30.914742
6142.87    81.501518    31.984320
6143.46    85.373787    30.629848
6144.05    79.881721    35.834064
6144.63    63.794647    44.901886
6145.22    50.305790    39.221115
6145.81    58.595474    30.627142
6146.40    74.034767    26.954512
6146.99    64.481308    23.891102
6147.57    67.902618    22.920128
6148.16    75.226921    27.646385
6148.75    55.510189    36.502800
6149.34    81.316162    32.026752
6149.93    111.142952    26.528673
6150.51    71.812988    38.846027
6151.10    67.604683    41.334759
6151.69    88.309669    33.729481
6152.28    75.894691    31.026396
6152.86    69.575340    31.263021
6153.45    77.572121    28.763046
6154.04    82.289330    25.307268
6154.63    68.596619    34.125206
6155.22    60.178543    39.889626
6155.80    72.123703    30.684748
6156.39    81.386017    21.069677
6156.98    85.178574    22.144709
6157.57    84.426628    31.434902
6158.16    77.398064    33.841137
6158.74    83.893974    26.907404
6159.33    93.089500    20.984028
6159.92    72.155785    28.514767
6160.51    69.052017    32.025581
6161.09    90.971649    25.605124
6161.68    99.381752    19.598248
6162.27    100.265678    17.021786
6162.86    92.018341    22.267105
6163.45    73.710175    33.844131
6164.03    80.441048    29.837914
6164.62    91.707863    20.296061
6165.21    81.456970    22.721519
6165.80    97.608673    19.882818
6166.39    111.125160    19.348885
6166.97    90.550346    30.102596
6167.56    85.408714    34.514549
6168.15    90.988327    31.937382
6168.74    84.986130    32.843380
6169.33    68.642883    45.080494
6169.91    71.542427    43.944389
6170.50    89.710197    28.446085
6171.09    79.683685    32.857262
6171.68    82.422104    33.701622
6172.26    102.009140    24.996485
6172.85    90.166168    29.809647
6173.44    68.077423    30.450865
6174.03    62.480705    23.673338
6174.62    78.086655    22.873077
6175.20    87.533646    22.177387
6175.79    82.890694    21.058176
6176.38    77.728416    24.152897
6176.97    87.726814    30.443693
6177.56    94.135170    30.995724
6178.14    80.046799    23.084377
6178.73    74.721992    23.291182
6179.32    81.478889    24.181789
6179.91    89.857277    18.490286
6180.49    93.198944    19.678251
6181.08    81.381653    22.326628
6181.67    67.666138    21.074442
6182.26    85.101280    22.252953
6182.85    86.942284    28.150064
6183.43    68.079498    32.044098
6184.02    81.662102    24.847994
6184.61    91.564896    22.529781
6185.20    84.712830    27.148853
6185.79    82.986229    26.538969
6186.37    74.037437    26.461733
6186.96    63.360878    29.479023
6187.55    67.007423    31.597080
6188.14    75.817146    27.350348
6188.73    73.872849    24.163670
6189.31    62.571400    28.353153
6189.90    76.963623    27.891434
6190.49    96.275993    25.961082
6191.08    95.628105    27.790388
6191.66    92.642044    27.806982
6192.25    80.360733    28.923918
6192.84    63.474518    31.902138
6193.43    70.771957    30.432158
6194.02    86.007851    25.797192
6194.60    90.021790    24.970703
6195.19    82.784035    33.184849
6195.78    83.412598    35.519951
6196.37    90.168182    28.385691
6196.96    85.972694    21.974495
6197.54    79.086235    21.558708
6198.13    77.151855    22.918396
6198.72    78.747826    21.517027
6199.31    73.122498    26.129669
6199.89    74.453903    31.675257
6200.48    88.323387    30.558575
6201.07    79.412170    28.502802
6201.66    65.523849    28.065722
6202.25    68.205704    31.113087
6202.83    73.229210    40.114895
6203.42    75.698174    46.625717
6204.01    76.017754    43.394867
6204.60    76.199715    32.100891
6205.19    81.669952    24.358351
6205.77    90.272926    24.048759
6206.36    93.121437    25.115467
6206.95    88.174919    23.913017
6207.54    77.449547    21.863194
6208.13    66.276756    23.311611
6208.71    63.561455    29.701506
6209.30    77.863571    29.454863
6209.89    99.677544    18.291161
6210.48    90.308273    20.350178
6211.06    75.093834    26.976435
6211.65    80.930077    25.324270
6212.24    83.661674    24.928654
6212.83    80.614410    26.775177
6213.42    80.669762    26.248320
6214.00    89.667740    20.001158
6214.59    92.556473    18.758354
6215.18    89.002365    20.936640
6215.77    90.839012    15.950035
6216.36    77.168449    21.311909
6216.94    61.583511    30.218283
6217.53    73.036896    24.210131
6218.12    87.881149    21.378508
6218.71    87.028542    26.298004
6219.29    74.246407    30.830297
6219.88    77.309662    28.688089
6220.47    79.230026    25.611244
6221.06    72.103203    27.511551
6221.65    89.847679    31.049301
6222.23    89.776688    33.999676
6222.82    64.537224    32.328121
6223.41    73.507195    22.892365
6224.00    90.789841    21.097960
6224.59    95.043938    27.165590
6225.17    93.855507    25.977009
6225.76    88.292587    21.019903
6226.35    89.278954    19.150343
6226.94    100.849190    22.329653
6227.53    90.524773    22.721420
6228.11    75.625092    23.963335
6228.70    83.297005    30.075922
6229.29    94.553551    31.224625
6229.88    100.049469    25.447021
6230.46    93.888313    19.189510
6231.05    70.925484    22.129156
6231.64    59.846561    28.626930
6232.23    69.871239    31.986153
6232.82    78.447281    32.249840
6233.40    83.226326    35.418945
6233.99    81.340759    41.490177
6234.58    71.571831    46.567001
6235.17    73.272964    54.747185
6235.76    85.235748    61.734764
6236.34    90.469086    60.990124
6236.93    79.111511    56.236084
6237.52    78.374352    48.258095
6238.11    96.190849    39.740402
6238.69    87.415367    38.052582
6239.28    86.234802    34.550346
6239.87    105.527924    27.203867
6240.46    100.994133    27.202808
6241.05    95.240189    27.547245
6241.63    97.974060    24.874189
6242.22    93.440292    24.982056
6242.81    92.231148    32.371166
6243.40    86.830490    36.604252
6243.99    68.839111    28.631214
6244.57    68.801582    27.992043
6245.16    78.873558    32.980782
6245.75    81.488747    32.686760
6246.34    86.788734    27.302383
6246.93    95.076004    22.981287
6247.51    96.577438    22.933224
6248.10    80.546539    23.541677
6248.69    62.308712    21.729736
6249.28    57.117764    21.117575
6249.86    66.890198    26.778955
6250.45    77.440567    26.606358
6251.04    78.358192    26.999998
6251.63    71.193939    37.166290
6252.22    71.605515    31.671328
6252.80    77.144302    20.327532
6253.39    78.956406    22.631411
6253.98    77.985100    30.730089
6254.57    69.848656    36.384575
6255.16    63.537098    35.352505
6255.74    78.984283    30.408192
6256.33    79.784279    38.614746
6256.92    64.777679    54.345871
6257.51    71.932198    54.810928
6258.09    81.396599    55.353725
6258.68    84.463165    56.527588
6259.27    87.575844    49.604004
6259.86    87.215767    46.820778
6260.45    82.330353    41.118248
6261.03    76.532745    26.855955
6261.62    77.217758    21.726505
6262.21    88.758476    21.885960
6262.80    98.223030    22.764877
6263.39    81.505646    29.642204
6263.97    62.028587    34.516907
6264.56    60.482658    31.614124
6265.15    74.277245    25.150335
6265.74    82.257431    29.424286
6266.32    83.416458    34.804935
6266.91    84.573578    28.059118
6267.50    73.194633    29.557507
6268.09    66.296234    36.735245
6268.68    74.332268    37.563610
6269.26    71.693115    31.369722
6269.85    59.688095    29.699232
6270.44    53.922676    33.007771
6271.03    67.012054    28.027832
6271.62    85.408463    22.987885
6272.20    91.662575    21.928173
6272.79    81.612907    21.142357
6273.38    79.685623    21.043051
6273.97    86.278931    20.855644
6274.56    87.700859    21.863146
6275.14    82.679985    29.988710
6275.73    84.358345    33.609245
6276.32    89.562988    26.648043
6276.91    74.269325    22.043343
6277.49    75.798294    23.243412
6278.08    94.267525    27.116655
6278.67    87.382080    27.735609
6279.26    81.323845    21.202351
6279.85    82.957527    15.944526
6280.43    79.825317    20.626427
6281.02    78.195297    23.423342
6281.61    75.706696    24.699421
6282.20    68.986458    27.765057
6282.79    64.358398    28.045362
6283.37    70.013863    31.152067
6283.96    79.935440    35.022465
6284.55    78.259300    29.110744
6285.14    81.600014    27.988543
6285.72    88.091690    33.476467
6286.31    85.109886    35.426231
6286.90    94.212585    38.027683
6287.49    99.858604    38.461380
6288.08    82.735497    35.726681
6288.66    68.109055    40.314262
6289.25    72.194786    35.484032
6289.84    86.557915    21.272892
6290.43    86.303894    26.404402
6291.02    86.423065    26.106106
6291.60    85.183075    17.881115
6292.19    69.227295    24.290329
6292.78    73.485863    28.204008
6293.37    81.043358    23.730179
6293.96    66.017433    20.286182
6294.54    68.307106    28.329969
6295.13    82.302338    34.573013
6295.72    87.168221    32.847176
6296.31    79.326683    43.799732
6296.89    61.471771    83.452896
6297.48    45.528423    149.878448
6298.07    52.438473    224.962128
6298.66    100.321785    292.671814
6299.25    122.513672    355.175262
6299.83    70.507675    407.989075
6300.42    60.118183    409.505676
6301.01    75.563995    373.533447
6301.60    72.206627    323.956879
6302.19    75.825470    255.620605
6302.77    79.759476    178.962097
6303.36    74.629578    113.828598
6303.95    62.702522    77.705452
6304.54    48.594002    66.366722
6305.12    52.382347    61.478214
6305.71    76.826752    52.932503
6306.30    69.004768    60.666199
6306.89    62.710720    62.287987
6307.48    79.750725    47.626373
6308.06    65.310638    52.308983
6308.65    61.903790    54.129982
6309.24    79.335258    41.451824
6309.83    74.811188    32.961506
6310.42    76.422203    32.808075
6311.00    78.526848    33.644531
6311.59    62.602367    30.147415
6312.18    61.727634    32.647091
6312.77    78.577766    32.659798
6313.36    90.308311    25.435905
6313.94    75.054657    23.952635
6314.53    66.262817    20.079239
6315.12    70.949799    17.274651
6315.71    64.528122    26.798046
6316.29    70.427368    22.471167
6316.88    85.437431    13.744776
6317.47    85.909599    21.862965
6318.06    66.402687    28.208054
6318.65    62.237110    26.764212
6319.23    80.436600    22.220709
6319.82    74.404510    21.940157
6320.41    62.214149    30.516579
6321.00    64.900993    36.820904
6321.59    77.082008    28.500271
6322.17    70.656281    30.698637
6322.76    55.527451    37.417046
6323.35    55.557465    31.609631
6323.94    65.907494    23.590969
6324.52    71.907684    18.378201
6325.11    73.782196    18.855902
6325.70    85.353737    26.230555
6326.29    80.934196    26.500370
6326.88    63.290466    24.462837
6327.46    58.519318    33.594601
6328.05    61.876343    38.195984
6328.64    71.482933    41.945889
6329.23    78.744888    48.889721
6329.82    63.791306    44.121708
6330.40    59.025234    44.149147
6330.99    74.295296    49.968117
6331.58    78.562553    40.139759
6332.17    73.288162    29.603693
6332.76    73.163788    22.472538
6333.34    81.289734    15.840878
6333.93    70.814789    22.336956
6334.52    61.458927    28.530216
6335.11    66.900757    25.148027
6335.69    63.420631    25.713852
6336.28    73.720116    21.519936
6336.87    89.191811    16.044224
6337.46    77.367859    21.744717
6338.05    70.929329    21.154125
6338.63    74.853371    18.112146
6339.22    76.656784    21.713276
6339.81    79.347916    20.522194
6340.40    79.257767    21.515808
6340.99    78.001556    24.999073
6341.57    81.871277    19.464314
6342.16    74.903206    19.876152
6342.75    72.901962    24.074131
6343.34    91.549980    19.515963
6343.92    82.921501    14.533593
6344.51    80.241844    10.645294
6345.10    101.520439    11.324665
6345.69    87.314217    24.617201
6346.28    67.679459    27.589020
6346.86    62.621983    20.867880
6347.45    60.140827    25.613260
6348.04    71.370285    26.111090
6348.63    78.334702    24.191370
6349.22    67.921165    26.229795
6349.80    70.868805    20.961267
6350.39    83.416832    18.143213
6350.98    91.046204    23.103216
6351.57    87.678192    26.680241
6352.16    77.329704    26.166801
6352.74    72.146362    21.980272
6353.33    77.376083    17.965498
6353.92    76.102219    21.502594
6354.51    76.640335    25.965303
6355.09    83.824493    26.005732
6355.68    84.189995    26.921835
6356.27    88.888161    29.670162
6356.86    92.461090    32.204632
6357.45    79.037430    32.816891
6358.03    62.921886    33.720844
6358.62    62.441730    31.703716
6359.21    73.702995    26.351694
6359.80    68.990173    26.222969
6360.39    79.727180    33.443287
6360.97    98.141571    48.526684
6361.56    80.321686    73.243530
6362.15    61.008102    108.785599
6362.74    64.387360    137.062347
6363.32    82.283638    145.302567
6363.91    85.103500    148.861664
6364.50    85.541466    133.490799
6365.09    87.833908    104.225113
6365.68    74.984116    89.522850
6366.26    61.259621    70.105370
6366.85    53.722256    46.704643
6367.44    52.754631    33.641388
6368.03    63.478294    26.757244
6368.62    66.761108    24.927147
6369.20    58.020805    26.990200
6369.79    58.427067    27.864435
6370.38    61.508484    20.470810
6370.97    64.969887    15.309361
6371.55    72.882355    23.396242
6372.14    81.455360    26.242207
6372.73    79.087585    24.548264
6373.32    70.987000    24.032906
6373.91    78.938141    22.518581
6374.49    76.590256    22.044046
6375.08    63.631477    24.632206
6375.67    62.810612    28.102039
6376.26    68.426949    24.450920
6376.85    71.135376    20.411247
6377.43    71.721436    21.895565
6378.02    78.901962    23.121897
6378.61    72.885223    25.790949
6379.20    61.629940    28.008022
6379.79    66.580627    25.753742
6380.37    61.766693    23.978794
6380.96    61.923439    26.301050
6381.55    78.979988    29.107370
6382.14    84.740189    23.778978
6382.72    79.238983    20.016657
6383.31    65.836357    21.126425
6383.90    48.513481    22.183689
6384.49    47.509136    26.552649
6385.08    56.757278    28.952917
6385.66    60.997147    27.843046
6386.25    60.697193    32.052109
6386.84    75.692345    27.646364
6387.43    88.526764    18.601698
6388.02    67.522034    22.811666
6388.60    52.530464    29.214445
6389.19    52.878971    28.956964
6389.78    57.560234    23.365139
6390.37    62.535545    20.900778
6390.95    64.480255    18.255709
6391.54    63.941616    16.013121
6392.13    64.958069    17.336563
6392.72    70.280464    13.326942
6393.31    74.843216     9.763159
6393.89    71.637901    13.585415
6394.48    60.871552    18.457628
6395.07    59.293034    17.524994
6395.66    62.761822    15.102118
6396.25    55.062836    20.108269
6396.83    50.362175    26.488316
6397.42    47.647682    27.348946
6398.01    46.639759    22.309181
6398.60    59.017117    18.497568
6399.19    69.011520    18.414734
6399.77    75.494125    18.828804
6400.36    85.610832    16.409401
6400.95    78.690872    16.658810
6401.54    64.986649    23.013954
6402.12    61.894073    28.092381
6402.71    68.294380    19.588428
6403.30    72.305328    19.080303
6403.89    70.520645    26.885530
6404.48    69.394569    26.671881
6405.06    74.679337    23.860390
6405.65    76.038925    25.457935
6406.24    68.033882    29.000353
6406.83    60.973091    24.646793
6407.42    60.801170    18.865801
6408.00    59.977573    16.975611
6408.59    52.693001    18.596464
6409.18    53.608643    20.868645
6409.77    56.662525    25.357563
6410.35    58.150005    30.073990
6410.94    64.912453    29.069929
6411.53    68.309944    26.070465
6412.12    66.233063    21.556141
6412.71    64.716286    17.038511
6413.29    69.741119    20.252951
6413.88    74.754631    21.417290
6414.47    77.278595    19.019382
6415.06    80.795258    21.203352
6415.65    78.743263    17.205833
6416.23    73.718544    14.428094
6416.82    74.427124    18.866615
6417.41    83.600128    16.699701
6418.00    80.728394    17.987240
6418.59    71.757469    22.053387
6419.17    75.477097    18.693661
6419.76    65.828423    18.853701
6420.35    57.407272    24.180759
6420.94    67.615700    27.057528
6421.52    82.050323    20.709095
6422.11    87.651428    16.668062
6422.70    80.774864    18.529457
6423.29    67.282433    21.418468
6423.88    59.085396    24.352367
6424.46    66.239342    24.597336
6425.05    72.653534    24.076426
6425.64    53.820232    27.485674
6426.23    55.880112    26.232086
6426.82    73.638771    20.395653
6427.40    77.223038    15.449661
6427.99    73.752426    12.721207
6428.58    70.978043    14.586255
6429.17    65.877769    15.647754
6429.75    55.648380    10.926893
6430.34    60.561306    16.592978
6430.93    65.867531    22.680758
6431.52    61.030502    19.126118
6432.11    67.034218    17.451836
6432.69    78.948624    19.525229
6433.28    83.829079    19.326801
6433.87    79.939011    14.388543
6434.46    84.065765    15.429686
6435.05    73.474289    14.460937
6435.63    55.919479    13.339396
6436.22    70.411850    23.648964
6436.81    75.007553    20.027945
6437.40    71.204720    12.440519
6437.99    70.982140    19.196636
6438.57    52.804153    26.515171
6439.16    66.691292    24.309076
6439.75    94.032715    15.803877
6440.34    79.035683    12.388575
6440.92    77.678284    18.615879
6441.51    76.108208    24.099409
6442.10    55.657761    22.972729
6442.69    43.577477    22.167782
6443.28    51.281540    21.631830
6443.86    66.156227    22.544014
6444.45    72.620331    24.148026
6445.04    73.126244    20.500219
6445.63    60.843632    19.411858
6446.22    50.034184    20.899397
6446.80    63.300575    17.702278
6447.39    78.997467    16.600782
6447.98    77.980736    16.993963
6448.57    68.003510    16.998446
6449.15    72.937233    18.253113
6449.74    65.045731    16.042255
6450.33    51.233551    15.869606
6450.92    54.876892    21.628109
6451.51    64.421722    20.536724
6452.09    75.628273    18.852625
6452.68    76.842804    21.387838
6453.27    60.686405    23.293203
6453.86    59.043812    20.098963
6454.45    63.416237    17.994421
6455.03    60.999454    18.999231
6455.62    63.040333    16.919279
6456.21    64.216255    24.116518
6456.80    62.488155    29.591566
6457.39    61.806568    20.150185
6457.97    64.129044    14.818316
6458.56    58.558590    19.388309
6459.15    56.193863    21.198875
6459.74    72.585526    12.105461
6460.32    73.006653    21.252945
6460.91    69.216873    29.561708
6461.50    71.941315    23.925858
6462.09    65.478142    25.541138
6462.68    70.588577    23.932039
6463.26    76.850334    20.802780
6463.85    68.669655    24.483809
6464.44    65.555817    30.794430
6465.03    69.913925    34.278648
6465.62    68.412178    33.716820
6466.20    55.991196    30.834814
6466.79    59.625511    26.405691
6467.38    63.934929    27.944424
6467.97    58.743999    33.123631
6468.55    60.517063    30.876793
6469.14    70.980766    29.748234
6469.73    73.604050    31.797583
6470.32    64.189430    34.876354
6470.91    64.357590    38.636002
6471.49    67.629791    37.353271
6472.08    67.779617    33.258007
6472.67    65.441948    29.093769
6473.26    61.443039    18.124668
6473.85    56.411331    16.693180
6474.43    54.090134    22.038055
6475.02    57.862999    18.071018
6475.61    62.085136    22.985086
6476.20    62.786877    24.598686
6476.78    65.364029    17.882818
6477.37    74.084656    21.172672
6477.96    59.904480    25.473221
6478.55    42.051159    27.764650
6479.14    49.246857    28.147951
6479.72    67.121216    21.560555
6480.31    73.706703    13.547367
6480.90    80.421165     9.601537
6481.49    93.054909    10.642072
6482.08    66.688950    13.895388
6482.66    51.120419    18.295271
6483.25    66.271790    19.733568
6483.84    74.444366    15.602266
6484.43    67.894867    14.968946
6485.02    72.037277    11.397951
6485.60    79.381889     9.432806
6486.19    54.538086    22.778910
6486.78    50.917187    21.356747
6487.37    62.663719    16.135029
6487.95    64.938652    20.982588
6488.54    68.139816    16.190926
6489.13    55.880569    13.308096
6489.72    48.177700    15.582243
6490.31    62.222496    17.712620
6490.89    61.136818    20.890642
6491.48    66.984581    19.077576
6492.07    71.225288    19.031334
6492.66    51.921242    26.768568
6493.25    54.159206    20.754940
6493.83    64.560226    14.941746
6494.42    63.387833    18.463003
6495.01    61.395237    19.717487
6495.60    82.560921    14.675104
6496.18    103.746315    14.660591
6496.77    101.449516    26.774368
6497.36    83.018707    42.918461
6497.95    55.240906    52.954308
6498.54    40.066616    54.981979
6499.12    49.739609    51.104706
6499.71    66.422134    42.890358
6500.30    69.937988    36.476429
6500.89    63.207085    33.262226
6501.48    61.660660    29.470699
6502.06    69.151649    23.422447
6502.65    69.265198    30.112858
6503.24    69.684692    37.949406
6503.83    78.490768    30.611525
6504.42    62.504150    31.921413
6505.00    53.099365    30.727449
6505.59    69.659248    23.049988
6506.18    87.054703    21.546658
6506.77    72.495949    25.069746
6507.35    60.241123    24.854361
6507.94    67.714493    20.727114
6508.53    71.054398    20.717281
6509.12    76.243896    21.252634
6509.71    71.740570    18.189518
6510.29    58.567272    16.164549
6510.88    58.337093    21.238392
6511.47    58.351284    14.564015
6512.06    54.540703    13.705656
6512.65    53.019543    26.054197
6513.23    57.116966    22.094221
6513.82    57.062065    19.934580
6514.41    54.680241    24.388901
6515.00    58.706886    25.124807
6515.58    68.307365    19.095448
6516.17    63.723183    20.022036
6516.76    60.820507    20.864241
6517.35    75.266411    14.969935
6517.94    76.254425    21.768539
6518.52    72.101875    21.691851
6519.11    74.130783    15.369448
6519.70    78.926140    16.900394
6520.29    73.887199    16.109367
6520.88    59.691124    21.035824
6521.46    56.887764    25.781012
6522.05    74.382874    20.328854
6522.64    75.127541    22.860786
6523.23    74.322777    21.883238
6523.82    76.382751    19.728222
6524.40    69.265945    27.702511
6524.99    73.938683    21.308842
6525.58    70.164879    14.407003
6526.17    63.942539    17.591785
6526.75    79.049934    20.127851
6527.34    70.513908    17.272919
6527.93    71.721680    14.040051
6528.52    87.166176    17.989309
6529.11    72.640678    27.982552
6529.69    64.244263    26.718355
6530.28    60.351574    26.862558
6530.87    56.183334    36.918175
6531.46    60.315990    44.677158
6532.05    46.346745    48.431770
6532.63    43.702148    46.275848
6533.22    59.438683    43.046078
6533.81    54.193375    44.051960
6534.40    56.681091    29.075459
6534.98    58.746361    21.953650
6535.57    55.257198    30.020035
6536.16    66.316620    20.263491
6536.75    63.160797    13.786147
6537.34    49.096909    18.880783
6537.92    48.523666    25.068579
6538.51    66.016289    21.619455
6539.10    60.459450    17.495331
6539.69    56.820515    17.364485
6540.28    73.330711    17.955292
6540.86    70.055832    16.269213
6541.45    56.232574    22.235519
6542.04    53.439495    25.552355
6542.63    62.139660    23.086483
6543.22    59.767807    30.839655
6543.80    50.407696    28.361519
6544.39    54.312965    24.029577
6544.98    68.106926    29.105347
6545.57    62.948925    29.341816
6546.15    66.839989    23.491598
6546.74    67.115814    19.339586
6547.33    55.949936    20.010216
6547.92    62.495102    19.752581
6548.51    55.495354    21.631130
6549.09    54.791977    20.789612
6549.68    66.897476    18.055515
6550.27    51.653912    23.825212
6550.86    67.565933    24.178076
6551.45    82.598602    28.626621
6552.03    60.141472    42.368034
6552.62    46.883884    46.766575
6553.21    59.576481    47.422569
6553.80    74.164062    43.619778
6554.38    69.486794    35.712780
6554.97    57.627098    31.368244
6555.56    58.554554    25.214779
6556.15    69.257835    21.447010
6556.74    74.984268    20.812368
6557.32    69.179253    15.736544
6557.91    61.912613    16.457775
6558.50    52.736191    20.077387
6559.09    51.987015    19.855066
6559.68    72.458092    18.434717
6560.26    68.711075    24.025330
6560.85    62.924576    31.831450
6561.44    73.787125    33.864975
6562.03    73.226761    31.079178
6562.62    61.228359    33.379700
6563.20    63.501873    31.960087
6563.79    67.357460    30.858791
6564.38    42.989090    42.336246
6564.97    53.524406    34.853622
6565.55    67.207115    23.269615
6566.14    58.823158    20.551706
6566.73    57.762127    16.500261
6567.32    67.710381    16.320946
6567.91    66.504356    23.336163
6568.49    58.965702    27.673372
6569.08    65.461876    22.163898
6569.67    62.528572    26.521175
6570.26    56.651585    24.943651
6570.85    57.811432    18.864573
6571.43    64.180550    22.857307
6572.02    69.897263    19.220852
6572.61    67.154900    16.513172
6573.20    64.524681    18.350584
6573.78    68.181030    17.281633
6574.37    61.800583    13.059125
6574.96    74.385544    16.656597
6575.55    83.015251    24.895744
6576.14    62.526260    28.884640
6576.72    59.435562    32.136726
6577.31    57.784458    33.688694
6577.90    59.450615    32.111206
6578.49    70.047508    27.961048
6579.08    66.789238    23.793787
6579.66    52.524952    22.646551
6580.25    43.355114    25.397907
6580.84    49.719673    25.711445
6581.43    63.919315    17.779682
6582.01    64.649055    20.820354
6582.60    57.029980    23.176704
6583.19    55.274128    18.972103
6583.78    59.131859    22.613197
6584.37    54.498932    20.263540
6584.95    58.947475    14.745827
6585.54    70.833450    12.980540
6586.13    67.726059    14.571594
6586.72    65.816086    17.096788
6587.31    65.681671    15.181012
6587.89    61.648602    13.286875
6588.48    56.893143    16.056522
6589.07    63.500763    12.679222
6589.66    69.008652    18.483948
6590.25    59.516888    24.977301
6590.83    47.845528    18.201317
6591.42    65.709274    16.280319
6592.01    68.931374    14.022769
6592.60    52.262012    11.731280
6593.18    45.108421    11.976380
6593.77    56.261257    11.161344
6594.36    58.827614    17.985046
6594.95    45.084091    29.546223
6595.54    38.951485    32.462780
6596.12    59.852531    22.223240
6596.71    61.358547    23.443497
6597.30    50.639572    25.439373
6597.89    54.157200    21.731304
6598.48    70.683929    22.163916
6599.06    69.691177    18.873486
6599.65    59.860172    19.287273
6600.24    55.803913    18.680248
6600.83    58.716709    12.877436
6601.41    61.743061    22.815392
6602.00    56.385113    29.593187
6602.59    47.780895    30.899677
6603.18    48.105671    32.969322
6603.77    56.931179    27.789837
6604.35    48.415966    29.101732
6604.94    38.232864    30.143745
6605.53    45.056465    25.789013
6606.12    56.797989    25.512375
6606.71    64.876740    20.507093
6607.29    64.894753    20.829676
6607.88    60.257084    23.456303
6608.47    62.524097    14.945683
6609.06    79.055870    11.408786
6609.65    75.071625    13.534550
6610.23    56.234711    15.013882
6610.82    52.928692    14.010390
6611.41    58.839531    14.333731
6612.00    73.759026    11.988132
6612.58    78.841949    11.913836
6613.17    65.056107    15.001943
6613.76    54.515923    12.306989
6614.35    57.041382    13.807547
6614.94    54.843025    14.414616
6615.52    49.363750    16.170361
6616.11    59.589699    24.910774
6616.70    63.527409    17.335775
6617.29    55.178139    15.776063
6617.88    50.617443    19.491003
6618.46    57.850204    12.207664
6619.05    57.120514    11.731722
6619.64    65.074539    10.764513
6620.23    70.599838    10.908358
6620.81    62.577824    14.019703
6621.40    57.862942    12.582743
6621.99    47.135452    18.086597
6622.58    49.675373    20.547892
6623.17    60.264194    16.624693
6623.75    54.928532    16.222626
6624.34    64.431358    12.757308
6624.93    69.439140    13.584481
6625.52    63.403923    17.853638
6626.11    60.996964    18.987556
6626.69    60.826271    20.399004
6627.28    50.600494    22.039793
6627.87    45.458340    18.683868
6628.46    52.500729    12.714507
6629.05    56.212559    14.238660
6629.63    70.022491    17.670670
6630.22    70.681992    16.769634
6630.81    63.081997    13.518567
6631.40    70.688026    12.164221
6631.98    67.615074     9.672783
6632.57    62.136883    13.361744
6633.16    58.631008    15.240068
6633.75    59.391327    10.962211
6634.34    69.743668    15.865526
6634.92    60.032776    24.011126
6635.51    44.139046    22.297363
6636.10    41.284286    15.534133
6636.69    45.542873    16.962296
6637.28    48.674351    14.307985
6637.86    56.707859    12.774062
6638.45    60.177860    12.515718
6639.04    55.009743    11.014194
6639.63    63.616486    13.742621
6640.21    73.245934    11.756355
6640.80    68.679169     7.518128
6641.39    52.633770     7.236824
6641.98    46.547012    11.162001
6642.57    67.058701    16.871746
6643.15    72.375038    13.416763
6643.74    64.504562    11.095029
6644.33    67.003044    17.998531
6644.92    58.188576    13.268486
6645.51    62.043880    12.830404
6646.09    69.640221    10.326326
6646.68    66.226723     5.169407
6647.27    59.972652    12.190027
6647.86    54.576908    13.025414
6648.45    59.170673    11.711740
6649.03    59.924831    11.881753
6649.62    45.992992    12.001305
6650.21    41.688404    15.882747
6650.80    42.980190    18.580772
6651.38    39.612103    19.058231
6651.97    43.401894    16.140230
6652.56    61.818787    11.653197
6653.15    45.867889    19.451008
6653.74    42.088482    16.373005
6654.32    55.398113    12.373738
6654.91    53.922462    23.116371
6655.50    51.821323    20.049997
6656.09    53.729183    13.359035
6656.68    52.449375     9.634797
6657.26    51.842739    10.767291
6657.85    60.395977    17.379036
6658.44    61.092148    20.603609
6659.03    58.974403    17.216785
6659.61    57.149178    15.358473
6660.20    56.115124    16.875244
6660.79    58.619633    12.247591
6661.38    50.626747    15.958759
6661.97    44.947124    19.579927
6662.55    50.845081    14.299953
6663.14    57.842976     8.078068
6663.73    56.336742    11.343632
6664.32    53.845772    14.388550
6664.91    61.755802    13.404187
6665.49    65.824615    13.192493
6666.08    47.947441    16.488657
6666.67    58.399323    18.500471
6667.26    67.628998    19.654175
6667.85    53.785549    17.832176
6668.43    45.083828    12.974592
6669.02    66.172623    13.858008
6669.61    66.070251    18.487759
6670.20    56.913368    16.756149
6670.78    62.598667    10.197919
6671.37    64.956627    10.646538
6671.96    46.789875    15.687166
6672.55    53.140350    17.212460
6673.14    66.150452    15.300342
6673.72    62.249413    13.896938
6674.31    70.074638    13.713637
6674.90    58.796833    15.999160
6675.49    49.912930    13.885428
6676.08    56.048195    12.872289
6676.66    56.960835    18.006979
6677.25    43.758011    14.974001
6677.84    46.218903    14.048229
6678.43    48.764236    18.234953
6679.01    47.229031    19.488890
6679.60    55.302441    14.268229
6680.19    42.326923    14.207864
6680.78    57.397278    16.121035
6681.37    69.203758    17.645481
6681.95    49.408558    19.109806
6682.54    46.282955    19.816916
6683.13    41.345863    20.890236
6683.72    46.114311    16.591734
6684.31    53.566257    14.968010
6684.89    49.910557    20.033525
6685.48    50.356815    15.900023
6686.07    45.762699    15.097700
6686.66    45.316612    16.099987
6687.24    47.623665    14.537548
6687.83    43.056068    13.963164
6688.42    43.802750    17.160227
6689.01    42.742722    18.738289
6689.60    45.631302    19.565565
6690.18    49.768082    18.157581
6690.77    45.884521    11.429501
6691.36    53.060619    10.315061
6691.95    52.831470    17.209358
6692.54    45.798611    21.218252
6693.12    42.642105    17.510237
6693.71    42.260048    14.433211
6694.30    51.951984    11.352362
6694.89    58.715240    12.124921
6695.48    56.803738    12.311213
6696.06    55.164097    12.454852
6696.65    60.262451    20.831087
6697.24    60.779995    13.857210
6697.83    55.836502    14.270952
6698.41    45.028008    21.525286
6699.00    38.188629    16.872169
6699.59    52.528282    15.254704
6700.18    46.779453    13.108685
6700.77    44.509159    11.687095
6701.35    56.045372    12.050607
6701.94    57.998383    11.998940
6702.53    58.245789    12.629516
6703.12    56.239479    14.499168
6703.71    54.623928    17.531704
6704.29    55.144440    18.879656
6704.88    55.051109    16.146210
6705.47    52.416111    13.369614
6706.06    47.927181    13.053380
6706.64    56.368534    12.365051
6707.23    62.312099    12.470947
6707.82    44.521744    15.929628
6708.41    52.540359    14.317768
6709.00    59.761707    15.638434
6709.58    56.428833    16.495237
6710.17    52.202206    13.733800
6710.76    49.706940    13.143632
6711.35    57.318363    10.133071
6711.94    61.355965     8.313371
6712.52    56.283020    14.996316
6713.11    53.435390    20.557775
6713.70    59.732685    11.535630
6714.29    56.992344    14.396877
6714.88    57.836269    19.086618
6715.46    57.026417    16.087017
6716.05    52.161919    11.803624
6716.64    59.263378    13.646678
6717.23    59.426945    16.087570
6717.81    47.880943    18.686581
6718.40    51.565979    17.839460
6718.99    67.385254    12.311958
6719.58    58.634186     9.021232
6720.17    63.988289    10.631417
6720.75    70.942886     9.859434
6721.34    70.820221     9.802954
6721.93    69.762154    13.236562
6722.52    62.919647    13.061011
6723.11    44.316940    12.462081
6723.69    46.650940     6.447352
6724.28    60.617821     8.124988
6724.87    56.372421    18.576231
6725.46    42.617249    15.533350
6726.04    48.106323    13.810498
6726.63    59.127838    14.266901
6727.22    54.945602    15.942025
6727.81    47.411064    16.729248
6728.40    59.091679    13.188544
6728.98    58.193882    14.579893
6729.57    49.795624    18.132683
6730.16    51.654911    16.214088
6730.75    49.368656    13.240732
6731.34    28.246365    19.415726
6731.92    45.217926    22.974327
6732.51    47.803715    21.859352
6733.10    38.511337    18.413130
6733.69    47.196556    14.265170
6734.28    56.871338    11.092597
6734.86    51.523342    11.065688
6735.45    46.221111     9.839891
6736.04    43.651871     9.105262
6736.63    47.038960    10.104475
6737.21    57.922985     9.999924
6737.80    49.878548    10.605229
6738.39    45.198639    12.254313
6738.98    49.036598    13.256505
6739.57    49.163601    12.818759
6740.15    43.041809    11.026858
6740.74    41.614758     8.051044
6741.33    43.826756    10.374203
6741.92    45.958824    12.220079
6742.51    51.182362    12.470740
6743.09    56.957401    15.035730
6743.68    51.108177    13.160632
6744.27    58.129612     6.594738
6744.86    61.409698     6.251609
6745.44    55.737850     9.222851
6746.03    57.407837     7.995658
6746.62    60.981297    10.365885
6747.21    48.197025    14.675415
6747.80    50.025040    20.855413
6748.38    63.350994    19.880535
6748.97    58.128742    11.303912
6749.56    40.159698    10.760472
6750.15    39.725319    12.351339
6750.74    39.660839     9.930138
6751.32    39.223618    12.801701
6751.91    58.563873    16.186430
6752.50    85.759727     7.175219
6753.09    66.735687    12.189347
6753.68    50.491333    13.655547
6754.26    47.560062    11.756173
6754.85    51.614006    11.595472
6755.44    61.998657     8.994848
6756.03    49.182808    10.778429
6756.61    35.773338    17.115940
6757.20    42.527096    18.414003
6757.79    53.367756    13.340875
6758.38    50.859097     8.735485
6758.97    51.109638     7.517371
6759.55    49.246498    12.399744
6760.14    54.730324     9.833520
6760.73    53.919640     8.156466
6761.32    46.333199    11.687692
6761.91    54.922550     6.845454
6762.49    47.336590    15.319783
6763.08    56.933540    13.117170
6763.67    52.794361    12.256551
6764.26    31.149685    19.472359
6764.84    42.830952    15.046019
6765.43    58.796341    11.753616
6766.02    62.319885     7.945487
6766.61    55.871338     7.897281
6767.20    47.903099    10.381228
6767.78    48.675552     9.961511
6768.37    58.357471     9.963549
6768.96    46.009418    10.083538
6769.55    54.317390     9.631877
6770.14    63.727695     8.527328
6770.72    49.459404     9.566763
6771.31    48.074585    13.865648
6771.90    43.931629    13.347631
6772.49    43.931271    13.220307
6773.08    47.628452    11.623394
6773.66    47.288239    10.361001
6774.25    46.137897    13.016794
6774.84    53.390026    11.209316
6775.43    49.926056    12.502905
6776.01    41.297642    15.849958
6776.60    34.833519    17.078648
6777.19    36.273090    15.734851
6777.78    48.535702    13.263216
6778.37    45.313332    10.872352
6778.95    46.548615    13.141113
6779.54    51.136711    12.588505
6780.13    49.337097    10.253380
6780.72    46.974415    14.042772
6781.31    46.812889    12.844926
6781.89    47.312344     8.589761
6782.48    42.197941     9.595823
6783.07    44.082886    12.330694
6783.66    53.120975    10.754807
6784.24    43.260685     9.947689
6784.83    33.851948    11.042097
6785.42    45.453674     9.592262
6786.01    50.861450     9.896727
6786.60    46.845337    10.385634
6787.18    56.150620     6.993251
6787.77    53.963531    10.332066
6788.36    49.784267    11.525354
6788.95    40.486481    10.362216
6789.54    37.084900    12.359206
6790.12    41.888752    13.469874
6790.71    41.279484     8.077723
6791.30    60.573997    12.332355
6791.89    53.393658    15.317719
6792.48    44.698273    11.500627
6793.06    52.434559     9.257572
6793.65    53.049732    12.068314
6794.24    53.538017    11.042704
6794.83    46.082993    12.842615
6795.41    40.316460    15.101748
6796.00    40.378372    11.628115
6796.59    42.567295     8.209753
6797.18    46.914467    12.950084
6797.77    52.681675    13.319161
6798.35    49.275352    12.565054
6798.94    39.553795    14.122361
6799.53    41.011524    12.489178
6800.12    52.856171     9.164023
6800.71    49.837830    12.999166
6801.29    40.364613     8.693525
6801.88    46.324966    11.279596
6802.47    50.633873    13.714484
6803.06    42.928509    10.464219
6803.64    42.441296    12.258805
6804.23    49.712925    17.341002
6804.82    35.389786    18.945787
6805.41    42.933914    10.363409
6806.00    52.516769     9.375978
6806.58    48.188328    16.116005
6807.17    59.004128    11.998850
6807.76    48.795750    17.069321
6808.35    49.449055    17.039883
6808.94    55.779873    12.332133
6809.52    52.626163    11.396659
6810.11    40.598129    14.502620
6810.70    32.694645    16.901203
6811.29    50.571247    17.776241
6811.87    57.866184    11.991708
6812.46    47.145145     7.596315
6813.05    40.975803     6.283105
6813.64    42.505150     5.208277
6814.23    31.943066    10.400723
6814.81    26.860332    15.742443
6815.40    35.065872    13.416882
6815.99    45.140976     9.948376
6816.58    48.332035    10.140422
6817.17    46.739403    12.373996
6817.75    43.291965    16.923800
6818.34    42.227341    13.494314
6818.93    41.244228    11.161587
6819.52    44.414497    10.072405
6820.11    44.324177     9.376801
6820.69    38.164394    10.924748
6821.28    48.256538     7.943412
6821.87    43.784145    12.350734
6822.46    41.070148    13.859743
6823.04    46.136013    13.599901
6823.63    49.772980    16.555294
6824.22    54.198074    16.968962
6824.81    58.636490    15.906658
6825.40    50.820816    17.407967
6825.98    65.329613    13.941104
6826.57    63.352459    18.824171
6827.16    43.127769    33.169186
6827.75    61.164268    36.011066
6828.34    54.698826    36.276340
6828.92    52.925411    33.916824
6829.51    52.683578    37.256775
6830.10    43.315907    44.797623
6830.69    35.379459    43.280655
6831.27    39.066921    32.946964
6831.86    47.595779    33.810814
6832.45    59.236477    32.544838
6833.04    40.751587    41.591404
6833.63    33.326614    39.777199
6834.21    50.732048    26.770781
6834.80    40.955376    38.106621
6835.39    46.964596    39.287663
6835.98    44.971851    31.207624
6836.57    38.993721    32.731983
6837.15    35.423191    27.697681
6837.74    37.877926    15.234252
6838.33    47.025043    18.998997
6838.92    42.124786    12.285635
6839.51    49.685188     9.084949
6840.09    56.787319     8.610952
6840.68    51.931610    15.898308
6841.27    48.383724    20.763777
6841.86    54.139633    12.040263
6842.44    53.745846    21.573421
6843.03    47.591125    12.780575
6843.62    40.875576    10.425283
6844.21    36.262848    14.043001
6844.80    35.148670    12.189115
6845.38    35.953587    15.062977
6845.97    35.421345    13.367058
6846.56    43.198528    11.855169
6847.15    43.395985    13.120052
6847.74    40.957504    14.158301
6848.32    43.621124    12.116197
6848.91    47.630726     8.809774
6849.50    51.226093     8.000487
6850.09    32.914909     7.604361
6850.67    54.156418     5.133799
6851.26    59.168270    10.347030
6851.85    43.363083    16.144857
6852.44    54.911869    11.583374
6853.03    39.895782    10.990001
6853.61    39.153236    10.331686
6854.20    44.345055     9.195388
6854.79    41.016747     9.055018
6855.38    40.769749     6.387668
6855.97    47.314098     6.006773
6856.55    43.158695    14.907187
6857.14    41.061546    11.593810
6857.73    49.226021    13.351582
6858.32    55.248295    10.904031
6858.91    49.156059     9.106926
6859.49    43.084808    14.604177
6860.08    45.931194    15.046453
6860.67    38.305397    21.301714
6861.26    44.887196    31.824970
6861.84    49.142380    34.095680
6862.43    59.739098    39.367130
6863.02    70.916542    49.736038
6863.61    54.227604    51.045063
6864.20    38.951172    48.248329
6864.78    48.697910    32.230824
6865.37    35.556770    35.503166
6865.96    32.095387    34.815170
6866.55    39.836674    22.298698
6867.14    28.231796    22.378162
6867.72    29.148056    22.251348
6868.31    20.072910    12.611834
6868.90    24.441298    11.220052
6869.49    36.472916    14.936935
6870.07    37.640572    16.248703
6870.66    32.491512    14.130867
6871.25    31.907969    12.096927
6871.84    25.204702    18.530535
6872.43    20.895969    15.910521
6873.01    33.006943    12.381864
6873.60    37.543499    11.468272
6874.19    23.889658    13.261448
6874.78    20.995504    15.681634
6875.37    37.126495     9.262115
6875.95    38.685150    10.483097
6876.54    31.782734     9.858683
6877.13    26.678106     9.589742
6877.72    31.566452    13.835020
6878.31    37.620045    15.705921
6878.89    29.951931    10.940558
6879.48    35.395874     7.947930
6880.07    51.630772    10.155117
6880.66    43.187729    11.297679
6881.24    23.808201    14.111689
6881.83    24.531158    18.932966
6882.42    43.406250    17.475216
6883.01    58.282791    11.299431
6883.60    42.341797    10.209693
6884.18    48.132378     7.846936
6884.77    49.083813     7.758644
6885.36    39.557709     8.887095
6885.95    37.350407     8.096624
6886.54    30.107002    10.046286
6887.12    40.442955    12.306786
6887.71    23.487261    18.004143
6888.30    30.617310    17.518759
6888.89    41.302120    16.482998
6889.47    27.865828    20.031986
6890.06    19.251684    22.203127
6890.65    24.900875    20.352730
6891.24    52.247089    11.374353
6891.83    30.262249    17.360067
6892.41    21.411602    17.181940
6893.00    37.835289    10.387868
6893.59    38.607475    11.365605
6894.18    40.490463     9.623854
6894.77    48.143879     4.683755
6895.35    38.851906    14.032448
6895.94    40.562225    13.080367
6896.53    36.710182     6.123575
6897.12    30.857298     4.905798
6897.71    41.830223     6.554876
6898.29    44.975922    10.029411
6898.88    38.593319    12.368925
6899.47    31.515633    16.863171
6900.06    47.501968    13.657976
6900.64    38.777145    17.540079
6901.23    18.784210    25.555046
6901.82    35.577084    18.882557
6902.41    36.021576    14.020144
6903.00    38.688690    15.326568
6903.58    36.643181    10.023840
6904.17    33.522137     8.307409
6904.76    29.643042    10.496074
6905.35    23.649260     9.757306
6905.94    24.697639    10.187343
6906.52    34.517529    12.854475
6907.11    33.531460    13.273417
6907.70    22.530277    11.762908
6908.29    37.894360    10.276287
6908.87    45.345501    12.751183
6909.46    30.235582    14.453592
6910.05    38.215462    11.032060
6910.64    31.897854    15.584904
6911.23    29.839701    16.348146
6911.81    46.895294    15.736286
6912.40    40.347008    16.571068
6912.99    25.682640    16.940548
6913.58    32.872299    17.290932
6914.17    34.250069    17.916994
6914.75    42.728279    14.280957
6915.34    37.479946    14.599528
6915.93    38.596287    14.969470
6916.52    40.207710    15.830824
6917.10    31.016232    17.213865
6917.69    31.548813    15.337860
6918.28    48.148849    10.877014
6918.87    38.298462     7.995784
6919.46    26.674774    10.506506
6920.04    30.005936    15.301329
6920.63    40.128815    17.891050
6921.22    44.439404    17.943668
6921.81    45.855042    22.914404
6922.40    46.804653    35.165424
6922.98    31.685410    35.950569
6923.57    41.235672    27.654217
6924.16    48.525024    26.970509
6924.75    38.946411    29.798763
6925.34    39.466698    23.399040
6925.92    47.170692    15.755438
6926.51    33.854820    20.066500
6927.10    37.063927    18.765413
6927.69    40.333797    12.632027
6928.27    43.342430     9.227965
6928.86    39.253723     9.084354
6929.45    42.505459     8.619463
6930.04    54.034523     6.528387
6930.63    42.717655     5.003749
6931.21    38.991936     6.695536
6931.80    37.775089     8.914606
6932.39    30.025524    13.482059
6932.98    37.627911    14.617664
6933.57    45.019413    12.433910
6934.15    39.694336    10.199834
6934.74    48.027348     7.013122
6935.33    37.672714    10.575202
6935.92    28.531176    11.945623
6936.50    30.314976    12.645979
6937.09    35.639679    13.194414
6937.68    31.717163    17.863373
6938.27    26.444717    23.162403
6938.86    33.202484    21.022913
6939.44    34.250175    23.148434
6940.03    47.800194    17.373178
6940.62    45.459984    16.587648
6941.21    30.835421    22.702152
6941.80    31.026884    19.273624
6942.38    34.287247     9.857774
6942.97    22.589794    12.401110
6943.56    25.936298    13.340265
6944.15    23.068523     6.193972
6944.74    35.885761    13.336672
6945.32    40.038483    21.388901
6945.91    26.409027    19.455889
6946.50    24.231466    20.721455
6947.09    32.818615    28.599548
6947.67    25.925667    29.006819
6948.26    38.976997    29.894518
6948.85    39.299046    29.019701
6949.44    36.195160    25.975628
6950.03    40.065437    28.470551
6950.61    31.014347    34.286530
6951.20    24.693869    25.695381
6951.79    49.064556     7.976492
6952.38    32.930290    19.139244
6952.97    35.705193    12.403212
6953.55    34.234810    13.553217
6954.14    29.054562    12.599339
6954.73    34.502666     9.263041
6955.32    38.037922    15.165800
6955.90    37.113079    10.832006
6956.49    40.879498    11.069381
6957.08    39.593533     7.861660
6957.67    45.253223     6.988700
6958.26    43.843704    13.939366
6958.84    31.777184    15.840105
6959.43    33.294140     7.814378
6960.02    44.978622     5.337084
6960.61    36.092144    11.779972
6961.20    43.654762    13.629907
6961.78    43.213650     8.745621
6962.37    43.392986    10.353882
6962.96    41.056267    10.756569
6963.55    32.834549    10.142779
6964.14    29.533278    13.879542
6964.72    36.573822     8.889393
6965.31    60.619316     8.585086
6965.90    39.632446    12.472525
6966.49    22.468685    11.871183
6967.07    36.864941    11.396603
6967.66    45.683498    14.109260
6968.25    41.751801    12.876937
6968.84    49.214016     9.079920
6969.43    42.621876    13.796976
6970.01    32.780487    13.493620
6970.60    27.348288    12.339876
6971.19    37.481766    15.323889
6971.78    41.718697    14.189484
6972.37    28.161058    12.949605
6972.95    19.731409    17.087284
6973.54    27.223894    12.913365
6974.13    40.605812    10.042120
6974.72    46.079617    11.312733
6975.30    45.148220    13.154999
6975.89    53.138638    12.054185
6976.48    45.838089    18.819754
6977.07    24.604748    25.120831
6977.66    32.228153    15.537623
6978.24    39.142189    18.738953
6978.83    28.660973    21.529547
6979.42    20.428524    23.772346
6980.01    26.440586    18.028269
6980.60    32.363247    15.908656
6981.18    25.461040    16.971727
6981.77    24.010550    13.017127
6982.36    40.277599    14.918256
6982.95    34.512321     8.522623
6983.54    25.250109     8.530149
6984.12    36.100540     8.456697
6984.71    40.437889     8.402218
6985.30    39.178787     8.869080
6985.89    35.197903     7.721397
6986.47    26.025555     8.253670
6987.06    41.984928    10.953355
6987.65    26.525341    11.303349
6988.24    33.973335     9.079361
6988.83    31.312256    10.913333
6989.41    30.645609    11.225209
6990.00    41.330475     7.959033
6990.59    40.702488     8.740708
6991.18    37.474705    12.047753
6991.77    28.514885     9.293956
6992.35    26.245667     6.272966
6992.94    31.749123     6.662905
6993.53    36.013630    11.315529
6994.12    34.922195    12.358940
6994.70    32.373638    11.490590
6995.29    30.532463    11.028831
6995.88    31.218103     5.013674
6996.47    39.176044    12.164026
6997.06    28.017811    14.480037
6997.64    25.347986    12.306900
6998.23    34.696045     8.723583
6998.82    37.650066     6.631732
6999.41    30.471273     9.175456
7000.00    27.705988    13.436527
7000.58    35.979004    14.012548
7001.17    31.686134    11.378207
7001.76    31.590677    10.843718
7002.35    30.756962    16.549604
7002.94    30.777407    15.716994
7003.52    31.906843    11.222316
7004.11    31.034010    12.115887
7004.70    36.005642    10.754479
7005.29    41.342590     8.996586
7005.87    23.969070    10.671948
7006.46    28.014858    10.509712
7007.05    38.438168     4.373797
7007.64    30.515308     5.900401
7008.23    24.973988    12.251884
7008.81    40.043003    11.956498
7009.40    51.035187    11.915409
7009.99    43.469978    10.074265
7010.58    39.810482    10.585633
7011.17    25.498514    12.582697
7011.75    21.232573    13.132833
7012.34    31.221157    16.149485
7012.93    36.589840    14.786774
7013.52    34.591492     7.380758
7014.10    35.171318     9.083073
7014.69    38.899216     8.977798
7015.28    37.285896    10.035221
7015.87    38.089832     8.084064
7016.46    34.987984     6.433833
7017.04    31.042994     8.075857
7017.63    32.862030    10.840804
7018.22    30.593592    10.403291
7018.81    23.001942     7.002604
7019.40    28.076469    11.337498
7019.98    20.616318    14.293210
7020.57    27.939032     5.023888
7021.16    30.857523     7.707097
7021.75    31.672779    12.907443
7022.33    32.605061     8.084617
7022.92    22.663355     7.949860
7023.51    27.004593     6.989249
7024.10    22.165844     7.730546
7024.69    28.647411     9.515318
7025.27    38.967209     4.990642
7025.86    32.392357     7.212790
7026.45    19.996529    14.254308
7027.04    28.456301    10.501318
7027.63    40.190002     5.487726
7028.21    23.928968    14.043033
7028.80    32.681778    10.967750
7029.39    46.475842     5.365086
7029.98    46.089558     6.581554
7030.57    39.135773     4.930158
7031.15    36.821468     3.755905
7031.74    34.308365     9.994370
7032.33    24.487297    12.703051
7032.92    22.024574     7.993073
7033.50    37.139259     8.735948
7034.09    31.597874     8.861749
7034.68    35.081562     4.769886
7035.27    34.880104     6.026674
7035.86    27.020277     9.995795
7036.44    33.148064     7.904947
7037.03    40.964050     4.917364
7037.62    34.006119     6.996987
7038.21    31.703047     9.527637
7038.80    24.274490    12.439495
7039.38    31.165688     7.297746
7039.97    33.607857     5.804714
7040.56    32.472588    11.183702
7041.15    33.340134    12.841626
7041.73    30.197392     7.898798
7042.32    42.003220     2.994960
7042.91    27.305794    10.636452
7043.50    33.043858     5.972915
7044.09    40.575310     9.930964
7044.67    30.335527    15.913237
7045.26    23.920740    13.733728
7045.85    33.008202     9.703094
7046.44    39.141445     6.987097
7047.03    36.000000    10.000001
7047.61    35.024384    13.086981
7048.20    32.203632    10.247166
7048.79    17.439749    13.031147
7049.38    27.247551    15.080951
7049.97    44.274719    10.932983
7050.55    31.392092     9.376129
7051.14    17.588360    10.756373
7051.73    24.020124     6.992643
7052.32    22.678679     8.548010
7052.90    19.859945    10.939646
7053.49    28.372753     9.548153
7054.08    32.087475     5.955161
7054.67    26.629583     8.332683
7055.26    27.594269    11.830861
7055.84    31.698259     7.435040
7056.43    27.008083     7.020976
7057.02    33.456223     9.819223
7057.61    32.704674     8.861084
7058.20    37.776978     6.245112
7058.78    26.458303    11.011612
7059.37    20.368620    13.126369
7059.96    31.338947     7.782497
7060.55    28.921619     8.627056
7061.13    32.045544    10.940661
7061.72    32.200581     4.940370
7062.31    29.953537    12.474865
7062.90    25.957140    10.679911
7063.49    25.428705     7.966942
7064.07    25.740244    11.149442
7064.66    35.796310    10.126585
7065.25    49.928036     6.552122
