#Wavelength     Flux
#[Angstrom]   [Counts]
3913.05     0.000000
3914.68     0.000000
3916.32     0.000000
3917.95     0.000000
3919.59     0.000000
3921.23     0.000000
3922.86     0.000000
3924.50     0.000000
3926.14     0.000000
3927.77     0.000000
3929.41     0.000000
3931.04     0.000000
3932.68     0.000000
3934.32     0.000000
3935.95     0.000000
3937.59     0.000000
3939.22     0.000000
3940.86     0.000000
3942.50     0.000000
3944.13     0.000000
3945.77     0.000000
3947.41    4826.245000
3949.04    4946.832000
3950.68    5109.221000
3952.31    5203.689000
3953.95    4831.664000
3955.59    4910.809000
3957.22    5178.310000
3958.86    4713.173000
3960.49    5074.850000
3962.13    5642.737000
3963.77    5829.867000
3965.40    6077.055000
3967.04    5887.687000
3968.68    5538.999000
3970.31    5860.779000
3971.95    5122.503000
3973.59    4781.780000
3975.22    4324.164000
3976.86    4455.261000
3978.49    4111.474000
3980.13    3570.165000
3981.77    3153.637000
3983.40    3106.673000
3985.04    2729.270000
3986.67    2473.598000
3988.31    2225.312000
3989.95    2566.680000
3991.58    2970.007000
3993.22    3496.272000
3994.86    3609.864000
3996.49    3534.907000
3998.13    4606.463000
3999.76    4753.982000
4001.40    4897.252000
4003.04    5753.643000
4004.67    5788.823000
4006.31    5673.353000
4007.95    5703.100000
4009.58    5774.501000
4011.22    5381.959000
4012.85    4818.649000
4014.49    4562.728000
4016.13    3723.008000
4017.76    3266.778000
4019.40    3136.068000
4021.03    2781.733000
4022.67    2733.634000
4024.31    2615.314000
4025.94    3368.716000
4027.58    4119.847000
4029.22    4596.019000
4030.85    5163.526000
4032.49    6072.703000
4034.12    6236.527000
4035.76    6168.328000
4037.40    6870.364000
4039.03    6979.990000
4040.67    6941.513000
4042.30    7027.522000
4043.94    7699.998000
4045.58    7762.488000
4047.21    7699.363000
4048.85    7771.216000
4050.49    7515.416000
4052.12    7766.705000
4053.76    7912.017000
4055.39    7885.361000
4057.03    8087.189000
4058.67    8055.216000
4060.30    7542.088000
4061.94    7576.723000
4063.58    7893.271000
4065.21    7844.325000
4066.85    8317.095000
4068.49    8196.739000
4070.12    8281.954000
4071.76    8242.699000
4073.39    7860.779000
4075.03    8049.021000
4076.67    8676.060000
4078.30    8440.874000
4079.94    7811.097000
4081.57    8180.892000
4083.21    7911.488000
4084.85    7824.686000
4086.48    7265.932000
4088.12    7673.233000
4089.76    7876.579000
4091.39    8406.346000
4093.03    7974.117000
4094.66    7389.639000
4096.30    7520.607000
4097.94    7313.839000
4099.57    7090.473000
4101.21    7791.975000
4102.85    7628.485000
4104.48    7416.791000
4106.12    7992.803000
4107.75    7516.991000
4109.39    7674.559000
4111.03    7424.082000
4112.66    6940.031000
4114.30    7167.312000
4115.94    7055.048000
4117.57    7039.765000
4119.21    7174.905000
4120.84    7163.836000
4122.48    7544.106000
4124.12    7408.504000
4125.75    7618.182000
4127.39    7323.546000
4129.02    7318.813000
4130.66    7305.723000
4132.30    7271.977000
4133.93    7665.126000
4135.57    7948.634000
4137.20    8186.072000
4138.84    8563.077000
4140.48    8150.094000
4142.11    9071.130000
4143.75    8962.186000
4145.39    8636.675000
4147.02    8607.950000
4148.66    7985.486000
4150.30    8102.786000
4151.93    7543.108000
4153.57    7745.884000
4155.20    7562.645000
4156.84    6652.559000
4158.48    7281.253000
4160.11    7147.080000
4161.75    6871.763000
4163.39    7603.906000
4165.02    7859.681000
4166.66    7701.491000
4168.29    7545.048000
4169.93    7725.917000
4171.56    7913.859000
4173.20    7576.391000
4174.84    7665.989000
4176.47    8180.450000
4178.11    7564.089000
4179.75    7814.910000
4181.38    7825.932000
4183.02    7719.583000
4184.65    7854.010000
4186.29    7433.284000
4187.93    7383.051000
4189.56    7363.839000
4191.20    7692.265000
4192.84    7828.803000
4194.47    7440.076000
4196.11    7844.207000
4197.74    7393.814000
4199.38    7028.804000
4201.02    7060.500000
4202.65    7055.631000
4204.29    7000.764000
4205.93    6724.582000
4207.56    6784.819000
4209.20    7205.031000
4210.83    7281.546000
4212.47    7402.987000
4214.11    7153.819000
4215.74    7476.638000
4217.38    7549.861000
4219.02    7823.991000
4220.65    8263.565000
4222.29    7680.220000
4223.92    7369.825000
4225.56    7360.153000
4227.20    7241.525000
4228.83    7221.320000
4230.47    7255.877000
4232.10    7338.777000
4233.74    7066.751000
4235.38    7046.145000
4237.01    7340.885000
4238.65    7327.095000
4240.29    7449.957000
4241.92    7711.511000
4243.56    7618.609000
4245.19    7973.733000
4246.83    7737.268000
4248.47    7852.296000
4250.10    7513.089000
4251.74    7494.556000
4253.38    7555.576000
4255.01    7449.973000
4256.65    7454.773000
4258.28    7455.567000
4259.92    7280.583000
4261.56    7829.574000
4263.19    8195.056000
4264.83    8403.523000
4266.47    8107.099000
4268.10    7941.022000
4269.74    8073.044000
4271.37    8284.886000
4273.01    8321.436000
4274.65    8064.003000
4276.28    8172.314000
4277.92    7949.660000
4279.56    7935.169000
4281.19    7543.020000
4282.83    6810.406000
4284.46    6856.470000
4286.10    7326.419000
4287.74    7662.313000
4289.37    7941.428000
4291.01    8137.753000
4292.65    8216.558000
4294.28    8037.044000
4295.92    8301.354000
4297.55    8833.666000
4299.19    8668.744000
4300.83    8828.353000
4302.46    9091.748000
4304.10    9014.469000
4305.73    8655.332000
4307.37    8467.804000
4309.01    8449.185000
4310.64    8181.639000
4312.28    8188.097000
4313.92    8062.022000
4315.55    8170.628000
4317.19    8427.672000
4318.82    8742.400000
4320.46    8910.843000
4322.10    8737.641000
4323.73    8840.591000
4325.37    8900.108000
4327.01    8166.533000
4328.64    7687.775000
4330.28    7558.027000
4331.91    7602.828000
4333.55    7826.293000
4335.19    8054.898000
4336.82    8334.101000
4338.46    8195.691000
4340.10    8205.949000
4341.73    8398.779000
4343.37    8298.246000
4345.00    8201.119000
4346.64    7796.536000
4348.28    7904.365000
4349.91    7607.766000
4351.55    7422.751000
4353.19    7428.592000
4354.82    7069.848000
4356.46    6743.432000
4358.09    6478.654000
4359.73    6310.167000
4361.36    6154.433000
4363.00    5806.321000
4364.64    5946.375000
4366.27    6215.908000
4367.91    6686.849000
4369.55    7460.759000
4371.18    8110.216000
4372.82    8774.166000
4374.45    9435.526000
4376.09    9973.088000
4377.73    10067.960000
4379.36    9791.997000
4381.00    9369.703000
4382.64    8765.423000
4384.27    8824.792000
4385.91    9022.506000
4387.55    9614.296000
4389.18    10305.290000
4390.82    10611.970000
4392.45    10262.130000
4394.09    9573.597000
4395.73    9469.740000
4397.36    9257.350000
4399.00    9262.025000
4400.63    9407.036000
4402.27    9345.516000
4403.91    10036.130000
4405.54    9763.262000
4407.18    9802.039000
4408.81    9878.688000
4410.45    9849.407000
4412.09    9900.618000
4413.72    9618.581000
4415.36    9918.974000
4417.00    10135.660000
4418.63    10264.150000
4420.27    10595.650000
4421.90    10577.250000
4423.54    10561.600000
4425.18    10450.570000
4426.81    10154.380000
4428.45    9931.853000
4430.09    9588.856000
4431.72    9790.209000
4433.36    9559.363000
4434.99    9403.993000
4436.63    9383.995000
4438.27    8901.368000
4439.90    9062.333000
4441.54    8806.184000
4443.18    8379.854000
4444.81    8628.716000
4446.45    8570.434000
4448.08    8870.219000
4449.72    9573.552000
4451.36    9723.503000
4452.99    9426.331000
4454.63    9635.849000
4456.27    9798.909000
4457.90    9627.860000
4459.54    9974.211000
4461.17    9853.678000
4462.81    9644.442000
4464.45    9294.595000
4466.08    9325.641000
4467.72    10193.990000
4469.35    10470.190000
4470.99    10324.240000
4472.63    10139.460000
4474.26    10456.290000
4475.90    10743.710000
4477.54    10576.140000
4479.17    10667.990000
4480.81    11217.700000
4482.44    11168.100000
4484.08    10718.710000
4485.72    10816.260000
4487.35    10564.760000
4488.99    10446.650000
4490.62    11970.630000
4492.26    11074.650000
4493.90    10756.220000
4495.53    10739.950000
4497.17    10680.370000
4498.81    10989.500000
4500.44    11064.670000
4502.08    10927.330000
4503.72    11593.760000
4505.35    11733.270000
4506.99    11560.950000
4508.62    12055.330000
4510.26    12115.650000
4511.90    11603.760000
4513.53    11098.250000
4515.17    10341.290000
4516.81    10167.770000
4518.44    9977.258000
4520.08    10238.170000
4521.71    10688.540000
4523.35    10843.360000
4524.99    11312.390000
4526.62    11019.430000
4528.26    11078.360000
4529.90    11476.920000
4531.53    11609.220000
4533.17    12013.350000
4534.80    12299.350000
4536.44    12176.610000
4538.08    12230.540000
4539.71    12186.690000
4541.35    12202.360000
4542.98    12455.690000
4544.62    12261.960000
4546.26    12059.110000
4547.89    12326.000000
4549.53    12045.490000
4551.17    11872.310000
4552.80    11503.120000
4554.44    11530.210000
4556.07    11571.150000
4557.71    11663.790000
4559.35    11946.710000
4560.98    12544.290000
4562.62    12822.500000
4564.26    13054.350000
4565.89    13238.710000
4567.53    13164.420000
4569.16    13562.120000
4570.80    13066.910000
4572.44    13220.520000
4574.07    13072.530000
4575.71    12863.820000
4577.35    12977.220000
4578.98    12645.910000
4580.62    12584.960000
4582.25    12753.990000
4583.89    12389.040000
4585.53    11631.940000
4587.16    11561.470000
4588.80    11337.850000
4590.43    10641.450000
4592.07    10731.590000
4593.71    11421.040000
4595.34    11278.250000
4596.98    11324.880000
4598.61    11645.960000
4600.25    12222.380000
4601.89    12317.390000
4603.52    12053.450000
4605.16    12208.790000
4606.80    12242.580000
4608.43    12365.210000
4610.07    12252.200000
4611.70    12105.610000
4613.34    12339.010000
4614.98    12387.870000
4616.61    12553.550000
4618.25    13063.590000
4619.89    13229.990000
4621.52    13013.730000
4623.16    12850.880000
4624.79    12874.710000
4626.43    13023.950000
4628.07    12900.590000
4629.70    13052.690000
4631.34    13324.340000
4632.98    13364.320000
4634.61    12928.250000
4636.25    13138.280000
4637.88    12905.760000
4639.52    12841.930000
4641.16    12980.790000
4642.79    12946.970000
4644.43    12365.950000
4646.06    12523.450000
4647.70    12949.250000
4649.34    12824.620000
4650.97    12816.750000
4652.61    12574.070000
4654.25    12693.720000
4655.88    12528.310000
4657.52    12875.970000
4659.15    12584.700000
4660.79    12863.730000
4662.43    12834.950000
4664.06    12990.740000
4665.70    12604.900000
4667.34    13621.030000
4668.97    13237.030000
4670.61    13841.580000
4672.24    13442.680000
4673.88    13925.970000
4675.52    14160.070000
4677.15    14217.260000
4678.79    14180.360000
4680.43    13988.810000
4682.06    13822.290000
4683.70    14047.560000
4685.33    14058.490000
4686.97    13761.020000
4688.61    13843.360000
4690.24    13541.530000
4691.88    13925.620000
4693.52    13770.980000
4695.15    13747.260000
4696.79    13049.350000
4698.42    13012.460000
4700.06    13047.700000
4701.70    12747.150000
4703.33    12604.550000
4704.97    12773.500000
4706.60    12293.900000
4708.24    12681.440000
4709.88    12603.500000
4711.51    12429.340000
4713.15    12762.880000
4714.79    12659.820000
4716.42    12821.350000
4718.06    12810.420000
4719.69    13504.320000
4721.33    13247.350000
4722.97    13397.820000
4724.60    13067.990000
4726.24    12615.730000
4727.88    12709.840000
4729.51    12287.140000
4731.15    12351.390000
4732.78    12555.560000
4734.42    12388.900000
4736.06    12566.670000
4737.69    12876.060000
4739.33    12842.090000
4740.97    12426.740000
4742.60    12746.120000
4744.24    12281.580000
4745.87    12301.390000
4747.51    12398.150000
4749.15    12434.260000
4750.78    12702.600000
4752.42    12909.690000
4754.06    12747.630000
4755.69    12867.480000
4757.33    12611.860000
4758.96    12641.590000
4760.60    12933.770000
4762.24    12378.870000
4763.87    12178.460000
4765.51    12356.320000
4767.15    12571.030000
4768.78    12221.910000
4770.42    12298.590000
4772.05    12311.640000
4773.69    12524.650000
4775.33    12767.540000
4776.96    12786.220000
4778.60    13079.170000
4780.23    13056.210000
4781.87    13385.690000
4783.51    14015.740000
4785.14    14135.670000
4786.78    13850.090000
4788.41    13875.950000
4790.05    13647.610000
4791.69    13130.540000
4793.32    12934.100000
4794.96    12908.880000
4796.60    13311.330000
4798.23    13140.280000
4799.87    13299.730000
4801.51    13578.470000
4803.14    14053.920000
4804.78    13976.440000
4806.41    13892.510000
4808.05    13897.830000
4809.69    13938.480000
4811.32    14041.170000
4812.96    14295.190000
4814.59    14427.140000
4816.23    14097.900000
4817.87    14038.030000
4819.50    14324.870000
4821.14    13967.800000
4822.77    13577.060000
4824.41    13446.410000
4826.05    13262.970000
4827.68    13255.010000
4829.32    13567.790000
4830.96    13504.200000
4832.59    13220.060000
4834.23    13650.540000
4835.86    13743.800000
4837.50    13777.540000
4839.14    14035.160000
4840.77    14330.950000
4842.41    14033.170000
4844.05    13496.870000
4845.68    13612.650000
4847.32    13463.640000
4848.95    13416.620000
4850.59    13724.590000
4852.23    13697.040000
4853.86    13515.640000
4855.50    14111.010000
4857.14    14401.670000
4858.77    14243.090000
4860.41    14553.540000
4862.04    14563.860000
4863.68    14522.350000
4865.32    14499.420000
4866.95    14560.920000
4868.59    14222.750000
4870.23    13972.340000
4871.86    14273.880000
4873.50    14212.990000
4875.13    13905.770000
4876.77    14008.400000
4878.41    14057.380000
4880.04    14609.210000
4881.68    14762.530000
4883.31    14704.770000
4884.95    14422.450000
4886.59    14311.930000
4888.22    14573.090000
4889.86    14269.580000
4891.50    14112.710000
4893.13    14340.500000
4894.77    14336.710000
4896.40    14207.030000
4898.04    14052.750000
4899.68    13828.150000
4901.31    13915.600000
4902.95    14044.430000
4904.59    13940.340000
4906.22    14064.270000
4907.86    14193.330000
4909.49    14050.480000
4911.13    13864.170000
4912.77    13986.390000
4914.40    13814.010000
4916.04    14174.990000
4917.68    14139.030000
4919.31    13672.190000
4920.95    13283.150000
4922.58    12903.590000
4924.22    12751.330000
4925.86    12435.440000
4927.49    12238.080000
4929.13    12707.710000
4930.77    12459.530000
4932.40    12536.840000
4934.04    12437.520000
4935.67    12877.760000
4937.31    12782.130000
4938.95    12950.560000
4940.58    13653.820000
4942.22    13874.140000
4943.85    13860.090000
4945.49    13752.020000
4947.13    13882.100000
4948.76    13777.070000
4950.40    13464.730000
4952.04    13153.830000
4953.67    13506.360000
4955.31    13334.270000
4956.94    13506.140000
4958.58    14108.170000
4960.22    14237.670000
4961.85    14717.450000
4963.49    14733.830000
4965.12    14969.350000
4966.76    14766.810000
4968.40    14891.370000
4970.03    14696.830000
4971.67    15009.620000
4973.31    14618.230000
4974.94    14758.110000
4976.58    14370.670000
4978.22    14350.490000
4979.85    14222.120000
4981.49    13857.660000
4983.12    14131.210000
4984.76    14209.480000
4986.40    13142.230000
4988.03    13410.810000
4989.67    14011.960000
4991.31    13835.400000
4992.94    14464.800000
4994.58    14604.130000
4996.21    14658.480000
4997.85    14889.290000
4999.49    14837.150000
5001.12    14096.120000
5002.76    14359.800000
5004.39    13737.570000
5006.03    14365.090000
5007.67    14514.480000
5009.30    14807.170000
5010.94    15006.380000
5012.57    14794.430000
5014.21    15297.960000
5015.85    15251.320000
5017.48    15021.450000
5019.12    15189.780000
5020.76    14327.400000
5022.39    14675.050000
5024.03    14156.580000
5025.66    14307.450000
5027.30    14392.340000
5028.94    13820.640000
5030.57    14072.900000
5032.21    14246.820000
5033.85    14364.970000
5035.48    13977.700000
5037.12    13933.790000
5038.75    14250.540000
5040.39    14087.610000
5042.03    14182.410000
5043.66    14247.260000
5045.30    14044.900000
5046.94    13565.140000
5048.57    13513.380000
5050.21    13265.680000
5051.84    13214.030000
5053.48    13565.830000
5055.12    13328.980000
5056.75    13616.670000
5058.39    14018.500000
5060.02    13652.720000
5061.66    13704.950000
5063.30    13793.440000
5064.93    13317.940000
5066.57    13621.800000
5068.21    13526.630000
5069.84    13323.880000
5071.48    13091.200000
5073.11    12926.700000
5074.75    12943.070000
5076.39    12950.350000
5078.02    12953.820000
5079.66    12762.850000
5081.30    12553.950000
5082.93    12477.450000
5084.57    13012.720000
5086.20    13093.560000
5087.84    13228.560000
5089.48    13343.860000
5091.11    13230.480000
5092.75    13243.220000
5094.39    13554.330000
5096.02    13805.890000
5097.66    13662.090000
5099.29    13558.580000
5100.93    13424.890000
5102.57    13469.810000
5104.20    13685.400000
5105.84    13447.600000
5107.48    13177.490000
5109.11    12890.100000
5110.75    13109.190000
5112.38    13666.890000
5114.02    13573.210000
5115.66    13427.420000
5117.29    13606.900000
5118.93    13682.960000
5120.56    13834.470000
5122.20    13875.300000
5123.84    13836.940000
5125.47    14380.090000
5127.11    14736.210000
5128.75    14787.740000
5130.38    14485.700000
5132.02    14199.010000
5133.65    13991.850000
5135.29    13783.880000
5136.93    13819.820000
5138.56    13602.040000
5140.20    13397.740000
5141.84    14096.110000
5143.47    13749.250000
5145.11    13436.810000
5146.74    13373.620000
5148.38    12974.830000
5150.02    13016.880000
5151.65    13126.930000
5153.29    13446.860000
5154.93    13615.790000
5156.56    13613.280000
5158.20    14120.900000
5159.83    14117.870000
5161.47    14091.380000
5163.11    13821.100000
5164.74    13658.250000
5166.38    13877.360000
5168.02    13445.510000
5169.65    13237.180000
5171.29    13199.390000
5172.92    13268.430000
5174.56    13203.920000
5176.20    13619.130000
5177.83    13412.310000
5179.47    13400.410000
5181.10    13774.270000
5182.74    13678.680000
5184.38    14042.090000
5186.01    13688.320000
5187.65    13624.530000
5189.29    13554.080000
5190.92    13153.010000
5192.56    13198.530000
5194.19    12424.480000
5195.83    12829.680000
5197.47    12921.800000
5199.10    12963.260000
5200.74    13277.930000
5202.38    13065.080000
5204.01    12762.270000
5205.65    13169.050000
5207.28    13027.740000
5208.92    13438.990000
5210.56    13140.510000
5212.19    13240.250000
5213.83    13093.810000
5215.47    13105.460000
5217.10    12704.110000
5218.74    12710.170000
5220.37    12850.330000
5222.01    12928.480000
5223.65    13044.850000
5225.28    13084.970000
5226.92    13398.930000
5228.56    13344.910000
5230.19    13127.330000
5231.83    12547.050000
5233.46    12204.190000
5235.10    10932.830000
5236.73    10793.590000
5238.37    10706.840000
5240.01    10188.450000
5241.64    10301.340000
5243.28    10580.910000
5244.92    10813.090000
5246.55    10791.490000
5248.19    10727.940000
5249.82    10646.510000
5251.46    10901.320000
5253.10    10838.360000
5254.73    11230.360000
5256.37    11507.570000
5258.01    11772.010000
5259.64    12440.600000
5261.28    12971.760000
5262.91    12906.300000
5264.55    13004.400000
5266.19    13476.660000
5267.82    13275.440000
5269.46    13332.940000
5271.10    13635.730000
5272.73    13280.960000
5274.37    13133.310000
5276.00    12916.680000
5277.64    12573.990000
5279.28    12787.890000
5280.91    12988.230000
5282.55    13379.600000
5284.19    13750.570000
5285.82    13918.800000
5287.46    14483.370000
5289.09    14548.750000
5290.73    14464.770000
5292.37    14428.750000
5294.00    14102.460000
5295.64    13751.440000
5297.27    13740.650000
5298.91    14102.270000
5300.55    14149.780000
5302.18    14580.850000
5303.82    14246.770000
5305.46    14191.580000
5307.09    14745.100000
5308.73    15266.670000
5310.36    15065.080000
5312.00    15152.300000
5313.64    15226.850000
5315.27    15239.010000
5316.91    14837.000000
5318.55    14914.190000
5320.18    14588.380000
5321.82    14294.630000
5323.45    14518.910000
5325.09    14525.060000
5326.73    14601.760000
5328.36    14794.400000
5330.00    14447.640000
5331.64    14113.700000
5333.27    13892.880000
5334.91    13802.090000
5336.54    13460.560000
5338.18    13064.930000
5339.82    12818.030000
5341.45    12750.710000
5343.09    13348.680000
5344.73    13817.950000
5346.36    13946.070000
5348.00    14318.420000
5349.63    14595.770000
5351.27    15141.280000
5352.91    14914.500000
5354.54    15644.210000
5356.18    15545.400000
5357.81    15743.960000
5359.45    16004.600000
5361.09    16115.840000
5362.72    16355.920000
5364.36    15611.510000
5366.00    15553.630000
5367.63    15297.380000
5369.27    15143.760000
5370.90    15538.200000
5372.54    15741.450000
5374.18    15963.720000
5375.81    15892.640000
5377.45    16510.540000
5379.09    16376.550000
5380.72    16465.350000
5382.36    16921.860000
5383.99    16443.330000
5385.63    16190.980000
5387.27    16503.290000
5388.90    16633.050000
5390.54    15830.330000
5392.18    15745.610000
5393.81    15854.300000
5395.45    15323.790000
5397.08    14843.170000
5398.72    14594.790000
5400.36    14722.200000
5401.99    14800.040000
5403.63    14772.480000
5405.27    15214.810000
5406.90    15622.670000
5408.54    15596.340000
5410.17    15377.300000
5411.81    15359.240000
5413.45    15373.860000
5415.08    15100.680000
5416.72    15587.490000
5418.35    15718.420000
5419.99    15468.130000
5421.63    15706.240000
5423.26    15776.540000
5424.90    16199.330000
5426.53    16634.020000
5428.17    16772.770000
5429.81    17054.910000
5431.44    16958.490000
5433.08    16511.710000
5434.72    16573.780000
5436.35    16209.640000
5437.99    15828.210000
5439.62    15712.170000
5441.26    15514.470000
5442.90    15289.730000
5444.53    15517.310000
5446.17    15675.150000
5447.81    15981.690000
5449.44    15722.820000
5451.08    15803.150000
5452.72    16166.000000
5454.35    15889.700000
5455.99    16399.170000
5457.62    16053.500000
5459.26    15801.740000
5460.90    15960.450000
5462.53    15635.800000
5464.17    15447.970000
5465.80    15323.140000
5467.44    15194.250000
5469.08    15048.650000
5470.71    14934.490000
5472.35    15022.260000
5473.98    14470.710000
5475.62    14611.290000
5477.26    14375.390000
5478.89    14605.510000
5480.53    15150.370000
5482.17    14825.300000
5483.80    15437.960000
5485.44    15044.760000
5487.07    15840.040000
5488.71    15862.220000
5490.35    15415.580000
5491.98    16102.780000
5493.62    15827.180000
5495.26    16046.760000
5496.89    15995.480000
5498.53    16014.050000
5500.16    15802.200000
5501.80    16265.440000
5503.44    15560.920000
5505.07    15104.380000
5506.71    15489.760000
5508.35    15602.100000
5509.98    15767.990000
5511.62    15833.240000
5513.25    15914.090000
5514.89    16187.720000
5516.53    16188.500000
5518.16    15863.210000
5519.80    15777.830000
5521.44    15643.670000
5523.07    15910.250000
5524.71    15643.960000
5526.34    15272.280000
5527.98    15261.710000
5529.62    15382.610000
5531.25    15437.640000
5532.89    15334.910000
5534.52    15298.040000
5536.16    15813.890000
5537.80    15565.610000
5539.43    15555.210000
5541.07    15753.540000
5542.71    15822.860000
5544.34    15500.030000
5545.98    15438.220000
5547.61    15512.020000
5549.25    14923.990000
5550.89    14590.040000
5552.52    14706.960000
5554.16    15157.160000
5555.80    15575.030000
5557.43    15509.740000
5559.07    15531.920000
5560.70    15506.010000
5562.34    15582.970000
5563.98    15489.410000
5565.61    14979.960000
5567.25    15591.710000
5568.89    15776.860000
5570.52    15630.890000
5572.16    16174.560000
5573.79    17817.030000
5575.43    17719.480000
5577.07    15962.040000
5578.70    15503.280000
5580.34    15367.700000
5581.98    16034.920000
5583.61    16672.570000
5585.25    16175.180000
5586.88    15946.210000
5588.52    15325.610000
5590.16    6830.775000
5591.79    15284.060000
5593.43    15680.670000
5595.06    15367.090000
5596.70    15262.420000
5598.34    15247.570000
5599.97    15704.590000
5601.61    15375.960000
5603.24    15439.620000
5604.88    15747.050000
5606.52    15513.660000
5608.15    15562.480000
5609.79    15642.630000
5611.43    15760.040000
5613.06    15965.850000
5614.70    15970.070000
5616.34    15950.540000
5617.97    15948.110000
5619.61    15851.720000
5621.24    16039.300000
5622.88    16104.550000
5624.52    15960.980000
5626.15    15934.630000
5627.79    15989.080000
5629.43    16024.300000
5631.06    16020.500000
5632.70    16213.920000
5634.33    16057.590000
5635.97    15879.470000
5637.60    16041.180000
5639.24    15813.650000
5640.88    15440.240000
5642.51    15082.690000
5644.15    15335.040000
5645.79    15487.640000
5647.42    15648.140000
5649.06    15775.640000
5650.69    15845.690000
5652.33    15573.510000
5653.97    15460.320000
5655.60    15418.370000
5657.24    15547.640000
5658.88    15354.420000
5660.51    15081.790000
5662.15    14718.210000
5663.78    14866.640000
5665.42    14990.910000
5667.06    14915.570000
5668.69    14608.500000
5670.33    14607.810000
5671.97    14866.980000
5673.60    15082.880000
5675.24    15286.390000
5676.88    15096.840000
5678.51    15173.540000
5680.15    15352.920000
5681.78    15788.580000
5683.42    15897.970000
5685.06    16034.450000
5686.69    16062.920000
5688.33    15730.470000
5689.96    15273.210000
5691.60    15201.240000
5693.24    15234.640000
5694.87    15345.670000
5696.51    15293.790000
5698.15    15314.540000
5699.78    15336.350000
5701.42    15437.060000
5703.05    15421.770000
5704.69    15283.250000
5706.33    15061.750000
5707.96    15414.790000
5709.60    15301.040000
5711.23    15237.490000
5712.87    15210.730000
5714.51    15641.350000
5716.14    15235.190000
5717.78    15116.000000
5719.42    15365.820000
5721.05    15498.340000
5722.69    15384.840000
5724.32    15310.720000
5725.96    15391.780000
5727.60    15431.100000
5729.23    15311.230000
5730.87    15248.600000
5732.51    15401.050000
5734.14    15361.020000
5735.78    15116.170000
5737.41    14922.550000
5739.05    15101.480000
5740.69    15220.400000
5742.32    15282.970000
5743.96    15361.620000
5745.60    15682.330000
5747.23    15489.720000
5748.87    15629.830000
5750.50    15830.800000
5752.14    15763.490000
5753.78    15727.670000
5755.41    15730.070000
5757.05    15720.600000
5758.69    15588.400000
5760.32    15558.280000
5761.96    15468.270000
5763.59    15299.080000
5765.23    15684.930000
5766.87    15689.740000
5768.50    15694.350000
5770.14    15694.420000
5771.77    15886.970000
5773.41    15661.880000
5775.05    15447.270000
5776.68    15322.440000
5778.32    14621.520000
5779.96    14506.090000
5781.59    14520.630000
5783.23    14755.700000
5784.86    14700.700000
5786.50    14840.900000
5788.14    15078.220000
5789.77    15626.380000
5791.41    15666.240000
5793.05    15965.430000
5794.68    16271.040000
5796.32    16401.260000
5797.95    16217.030000
5799.59    16086.680000
5801.23    16003.960000
5802.86    16447.780000
5804.50    16571.460000
5806.14    16265.800000
5807.77    15757.870000
5809.41    15851.520000
5811.04    16378.940000
5812.68    16513.210000
5814.32    16364.900000
5815.95    16596.930000
5817.59    16310.390000
5819.23    16252.770000
5820.86    16415.490000
5822.50    16516.020000
5824.13    16239.460000
5825.77    16035.370000
5827.40    15999.280000
5829.04    15990.250000
5830.68    15909.130000
5832.31    15857.310000
5833.95    15908.270000
5835.59    15944.780000
5837.22    16149.950000
5838.86    16310.400000
5840.49    16368.250000
5842.13    16177.310000
5843.77    16196.000000
5845.40    16282.290000
5847.04    16549.920000
5848.68    16122.700000
5850.31    16055.000000
5851.95    16060.500000
5853.59    16086.100000
5855.22    15676.350000
5856.86    15651.200000
5858.49    15760.050000
5860.13    15758.980000
5861.77    15241.420000
5863.40    15068.230000
5865.04    15087.570000
5866.67    15630.260000
5868.31    15643.280000
5869.95    15845.020000
5871.58    16233.200000
5873.22    16285.630000
5874.85    16338.630000
5876.49    16369.410000
5878.13    16446.160000
5879.76    16112.100000
5881.40    16048.400000
5883.04    16091.920000
5884.67    16347.890000
5886.31    15964.180000
5887.94    15655.760000
5889.58    15443.210000
5891.22    15502.020000
5892.85    15575.620000
5894.49    15428.970000
5896.13    15380.370000
5897.76    15907.890000
5899.40    15633.950000
5901.03    15731.210000
5902.67    15937.400000
5904.31    16388.860000
5905.94    16168.000000
5907.58    16171.750000
5909.22    16233.330000
5910.85    16206.690000
5912.49    15814.650000
5914.12    15668.400000
5915.76    15637.390000
5917.40    15869.880000
5919.03    15840.400000
5920.67    15766.750000
5922.31    15614.140000
5923.94    15817.510000
5925.58    15595.210000
5927.21    15526.970000
5928.85    15638.330000
5930.49    15390.370000
5932.12    15219.980000
5933.76    15261.520000
5935.40    15686.250000
5937.03    15274.250000
5938.67    14884.990000
5940.30    14505.260000
5941.94    14162.120000
5943.58    14477.350000
5945.21    14782.570000
5946.85    15021.010000
5948.48    15111.670000
5950.12    15141.810000
5951.76    15076.380000
5953.39    14947.470000
5955.03    14780.020000
5956.67    14567.050000
5958.30    14350.110000
5959.94    14097.230000
5961.57    13763.740000
5963.21    13425.090000
5964.85    12960.230000
5966.48    12370.100000
5968.12    11533.390000
5969.76    11163.760000
5971.39    11026.230000
5973.03    11025.410000
5974.66    11450.640000
5976.30    11610.460000
5977.94    11963.930000
5979.57    12555.080000
5981.21    13211.650000
5982.85    13618.090000
5984.48    13927.320000
5986.12    14160.480000
5987.75    14586.400000
5989.39    14681.910000
5991.03    14756.270000
5992.66    14900.980000
5994.30    14793.490000
5995.94    14843.040000
5997.57    14888.670000
5999.21    14914.090000
6000.84    14868.560000
6002.48    14967.440000
6004.12    15023.880000
6005.75    14898.060000
6007.39    14822.760000
6009.02    14825.450000
6010.66    14845.990000
6012.30    14935.300000
6013.93    14963.840000
6015.57    14926.120000
6017.20    14870.270000
6018.84    15244.950000
6020.48    15518.410000
6022.11    15334.390000
6023.75    14834.230000
6025.39    15134.420000
6027.02    15124.470000
6028.66    14984.000000
6030.30    14729.410000
6031.93    15121.140000
6033.57    15032.630000
6035.20    14902.420000
6036.84    14746.920000
6038.48    15204.610000
6040.11    15245.270000
6041.75    15244.910000
6043.39    15268.560000
6045.02    14664.850000
6046.66    14809.510000
6048.29    15026.260000
6049.93    15273.120000
6051.56    15396.580000
6053.20    15212.220000
6054.84    14968.470000
6056.48    14839.960000
6058.11    14993.990000
6059.75    14783.950000
6061.38    14539.540000
6063.02    14829.840000
6064.65    14887.300000
6066.29    14935.530000
6067.93    14932.430000
6069.56    14624.060000
6071.20    14732.700000
6072.84    14727.920000
6074.47    14658.680000
6076.11    15331.330000
6077.74    15094.010000
6079.38    14936.770000
6081.02    14833.670000
6082.65    14921.430000
6084.29    14980.110000
6085.93    14859.320000
6087.56    14518.230000
6089.20    14335.240000
6090.84    14350.530000
6092.47    14416.190000
6094.11    14611.230000
6095.74    14409.990000
6097.38    14745.790000
6099.02    14926.500000
6100.65    14664.730000
6102.29    14623.840000
6103.92    14769.630000
6105.56    14856.810000
6107.20    14746.960000
6108.83    15259.820000
6110.47    15189.670000
6112.10    15069.620000
6113.74    15554.700000
6115.38    15427.600000
6117.01    15336.540000
6118.65    15244.500000
6120.29    15221.430000
6121.92    15274.510000
6123.56    15394.040000
6125.19    15513.720000
6126.83    15426.170000
6128.47    15454.430000
6130.10    15330.750000
6131.74    15065.200000
6133.38    15328.370000
6135.01    15592.670000
6136.65    15522.610000
6138.28    15064.660000
6139.92    15051.550000
6141.56    15203.570000
6143.19    15189.880000
6144.83    14961.480000
6146.47    14939.290000
6148.10    14940.270000
6149.74    15006.710000
6151.37    15266.940000
6153.01    15022.220000
6154.65    15256.210000
6156.28    15423.980000
6157.92    15282.930000
6159.56    15133.840000
6161.19    14832.510000
6162.83    14577.780000
6164.46    14780.980000
6166.10    14862.560000
6167.74    14886.930000
6169.37    14875.680000
6171.01    14863.220000
6172.65    14624.010000
6174.28    14496.680000
6175.92    14391.210000
6177.55    14301.470000
6179.19    14639.720000
6180.83    14630.350000
6182.46    14365.770000
6184.10    14233.260000
6185.73    14133.130000
6187.37    14152.970000
6189.01    14279.440000
6190.64    14474.000000
6192.28    14674.380000
6193.92    14753.890000
6195.55    14719.390000
6197.19    14810.000000
6198.82    14604.640000
6200.46    14359.500000
6202.10    14091.920000
6203.73    14403.350000
6205.37    14206.130000
6207.01    14055.340000
6208.64    14299.650000
6210.28    14225.200000
6211.91    14183.910000
6213.55    14180.560000
6215.19    14368.910000
6216.82    14190.020000
6218.46    14127.580000
6220.10    14124.400000
6221.73    14388.960000
6223.37    14076.190000
6225.00    14099.000000
6226.64    14267.810000
6228.28    14712.630000
6229.91    14492.160000
6231.55    14428.050000
6233.19    14415.940000
6234.82    13894.760000
6236.46    13717.370000
6238.09    13679.790000
6239.73    13755.080000
6241.36    13420.960000
6243.00    13167.900000
6244.64    12933.740000
6246.27    12747.630000
6247.91    12870.100000
6249.55    13093.560000
6251.18    13222.240000
6252.82    13224.290000
6254.45    13286.680000
6256.09    13384.040000
6257.73    13423.420000
6259.36    13390.380000
6261.00    13404.070000
6262.64    13478.310000
6264.27    13570.870000
6265.91    13746.970000
6267.55    13388.030000
6269.18    13388.970000
6270.82    13394.720000
6272.45    12966.130000
6274.09    12502.240000
6275.73    12407.210000
6277.36    12446.870000
6279.00    12634.180000
6280.64    12768.760000
6282.27    12788.030000
6283.91    12754.740000
6285.54    13255.370000
6287.18    13067.370000
6288.81    13040.490000
6290.45    13093.870000
6292.09    13351.610000
6293.72    13180.750000
6295.36    13211.360000
6297.00    13468.810000
6298.63    13362.930000
6300.27    13143.310000
6301.90    12928.760000
6303.54    12746.950000
6305.18    13237.520000
6306.81    13012.470000
6308.45    12767.910000
6310.09    12676.200000
6311.72    12477.430000
6313.36    12488.910000
6314.99    12468.300000
6316.63    12271.850000
6318.27    12383.830000
6319.90    12374.220000
6321.54    12357.890000
6323.18    12515.480000
6324.81    12510.280000
6326.45    12523.560000
6328.08    12487.040000
6329.72    12154.700000
6331.36    12289.230000
6332.99    12340.060000
6334.63    12348.850000
6336.27    12550.300000
6337.90    12505.350000
6339.54    12332.340000
6341.17    12026.690000
6342.81    12215.930000
6344.45    12310.190000
6346.08    12483.050000
6347.72    12749.270000
6349.35    12829.410000
6350.99    12946.490000
6352.63    13028.870000
6354.26    13104.670000
6355.90    12881.390000
6357.54    12794.960000
6359.17    12836.050000
6360.81    13196.660000
6362.44    12981.630000
6364.08    13022.970000
6365.72    13138.140000
6367.35    13422.240000
6368.99    13264.590000
6370.63    13132.270000
6372.26    13082.860000
6373.90    13437.980000
6375.53    13258.640000
6377.17    13089.510000
6378.81    12955.460000
6380.44    13205.570000
6382.08    13239.730000
6383.72    13132.390000
6385.35    12964.200000
6386.99    13083.510000
6388.62    12786.710000
6390.26    12730.020000
6391.90    12788.800000
6393.53    12968.290000
6395.17    12970.500000
6396.81    13074.530000
6398.44    13283.680000
6400.08    12937.260000
6401.71    12820.040000
6403.35    12757.290000
6404.99    12796.290000
6406.62    12658.990000
6408.26    12894.200000
6409.90    13077.810000
6411.53    13209.380000
6413.17    13391.890000
6414.80    13283.790000
6416.44    13171.020000
6418.08    13163.960000
6419.71    12836.820000
6421.35    13001.060000
6422.98    13145.350000
6424.62    12904.380000
6426.26    12946.080000
6427.89    12964.800000
6429.53    12998.590000
6431.16    13274.780000
6432.80    13130.280000
6434.44    13044.960000
6436.07    12964.010000
6437.71    12866.650000
6439.35    12777.820000
6440.98    12840.790000
6442.62    12927.060000
6444.26    12293.240000
6445.89    12469.650000
6447.53    12542.930000
6449.16    12521.160000
6450.80    12494.580000
6452.44    12875.680000
6454.07    13107.770000
6455.71    13183.980000
6457.35    12902.800000
6458.98    13009.300000
6460.62    13184.620000
6462.25    13530.490000
6463.89    13079.820000
6465.52    13247.450000
6467.16    13332.800000
6468.80    13158.670000
6470.44    12753.380000
6472.07    12999.450000
6473.71    13198.760000
6475.34    12912.580000
6476.98    12946.640000
6478.61    12890.730000
6480.25    12830.720000
6481.89    12970.200000
6483.52    12805.050000
6485.16    12914.130000
6486.80    13063.970000
6488.43    12786.740000
6490.07    12916.840000
6491.70    13006.640000
6493.34    13033.450000
6494.98    12863.010000
6496.61    12947.730000
6498.25    12912.000000
6499.89    12760.110000
6501.52    12930.190000
6503.16    13171.640000
6504.80    13181.750000
6506.43    12939.530000
6508.07    12999.980000
6509.70    13030.890000
6511.34    12933.030000
6512.98    12689.030000
6514.61    12849.350000
6516.25    12751.060000
6517.88    12796.090000
6519.52    13277.250000
6521.16    12815.210000
6522.79    12663.670000
6524.43    12739.200000
6526.06    13440.560000
6527.70    13355.800000
6529.34    13037.350000
6530.97    12747.240000
6532.61    12925.520000
6534.25    12562.790000
6535.88    12478.370000
6537.52    12513.320000
6539.15    12863.430000
6540.79    12706.070000
6542.43    12812.550000
6544.06    13000.030000
6545.70    12966.070000
6547.34    12743.080000
6548.97    12781.760000
6550.61    12969.250000
6552.24    12980.730000
6553.88    12833.420000
6555.52    12910.610000
6557.15    13212.630000
6558.79    13292.560000
6560.43    13075.050000
6562.06    13077.880000
6563.70    13456.210000
6565.33    13014.010000
6566.97    12942.790000
6568.61    12861.090000
6570.24    12770.120000
6571.88    12520.670000
6573.52    12569.300000
6575.15    12608.990000
6576.79    12559.120000
6578.42    12513.340000
6580.06    12317.950000
6581.70    12131.110000
6583.33    12173.050000
6584.97    12173.260000
6586.60    12271.810000
6588.24    12402.310000
6589.88    12617.230000
6591.51    12539.340000
6593.15    12508.720000
6594.79    12517.460000
6596.42    13092.290000
6598.06    12765.480000
6599.69    12867.360000
6601.33    13193.020000
6602.97    12983.090000
6604.60    13059.520000
6606.24    13080.060000
6607.88    13059.370000
6609.51    12902.580000
6611.15    13051.460000
6612.78    13105.600000
6614.42    13099.610000
6616.06    12802.910000
6617.69    12892.220000
6619.33    13006.460000
6620.97    13207.430000
6622.60    13282.700000
6624.24    13059.250000
6625.87    12943.450000
6627.51    13208.970000
6629.15    12936.040000
6630.78    12867.430000
6632.42    12857.860000
6634.06    13005.710000
6635.69    13018.210000
6637.33    12910.520000
6638.96    12724.280000
6640.60    12353.240000
6642.24    12430.250000
6643.87    12363.080000
6645.51    12234.590000
6647.15    12349.950000
6648.78    12028.080000
6650.42    11988.500000
6652.05    12077.830000
6653.69    12083.150000
6655.32    12192.670000
6656.96    12184.820000
6658.60    12055.220000
6660.23    12194.520000
6661.87    12202.180000
6663.51    12420.260000
6665.14    12901.960000
6666.78    12987.580000
6668.41    13066.520000
6670.05    13110.690000
6671.69    13165.960000
6673.32    13301.350000
6674.96    13345.200000
6676.60    13330.320000
6678.23    13232.570000
6679.87    12910.260000
6681.51    12763.420000
6683.14    12588.650000
6684.78    12281.210000
6686.41    12396.190000
6688.05    12387.440000
6689.69    12354.030000
6691.32    12404.170000
6692.96    12632.320000
6694.60    12572.850000
6696.23    12415.640000
6697.87    12518.570000
6699.50    12823.690000
6701.14    12650.030000
6702.77    12270.500000
6704.41    12807.310000
6706.05    12738.910000
6707.68    12815.260000
6709.32    12957.820000
6710.96    12529.850000
6712.59    12242.210000
6714.23    12151.230000
6715.86    12264.090000
6717.50    12388.010000
6719.14    12334.660000
6720.77    12237.710000
6722.41    12130.350000
6724.05    12021.340000
6725.68    12062.590000
6727.32    12134.960000
6728.95    12287.780000
6730.59    12199.620000
6732.23    12316.020000
6733.86    12371.660000
6735.50    12225.350000
6737.14    12492.060000
6738.77    12336.140000
6740.41    12140.920000
6742.04    12214.440000
6743.68    12208.240000
6745.32    12179.070000
6746.95    12104.930000
6748.59    11964.360000
6750.23    12083.420000
6751.86    12061.850000
6753.50    11965.450000
6755.13    11947.150000
6756.77    11733.090000
6758.41    11808.780000
6760.04    12034.260000
6761.68    11819.810000
6763.31    11820.730000
6764.95    11888.800000
6766.59    12036.920000
6768.22    11563.560000
6769.86    11583.900000
6771.50    11619.660000
6773.13    11724.420000
6774.77    11814.170000
6776.40    11872.310000
6778.04    11896.770000
6779.68    11892.970000
6781.31    11667.550000
6782.95    11724.940000
6784.59    11747.630000
6786.22    11642.800000
6787.86    11670.820000
6789.49    11799.310000
6791.13    11876.360000
6792.77    11728.620000
6794.40    11554.520000
6796.04    11611.590000
6797.68    11683.340000
6799.31    11604.640000
6800.95    11556.540000
6802.58    11574.660000
6804.22    11621.190000
6805.86    11826.960000
6807.49    11597.800000
6809.13    11655.560000
6810.77    11844.350000
6812.40    11719.620000
6814.04    11458.600000
6815.67    11426.210000
6817.31    11567.140000
6818.95    11791.010000
6820.58    11700.490000
6822.22    11691.490000
6823.85    11788.210000
6825.49    11662.740000
6827.13    11554.610000
6828.76    11559.510000
6830.40    11783.680000
6832.04    11433.800000
6833.67    11250.180000
6835.31    11221.780000
6836.94    11573.300000
6838.58    11406.180000
6840.22    11300.010000
6841.85    11252.210000
6843.49    11414.520000
6845.12    11375.080000
6846.76    11518.400000
6848.40    11579.290000
6850.03    11089.500000
6851.67    11265.130000
6853.31    11434.610000
6854.94    11562.070000
6856.58    11419.950000
6858.22    11455.790000
6859.85    11424.760000
6861.49    11325.550000
6863.12    11064.370000
6864.76    10534.980000
6866.40    10039.560000
6868.03    9516.661000
6869.67    8599.170000
6871.31    8292.826000
6872.94    8239.838000
6874.58    8460.404000
6876.21    8789.630000
6877.85    9351.663000
6879.48    9772.676000
6881.12    10028.750000
6882.76    10015.410000
6884.40    10043.290000
6886.03    10031.290000
6887.67    9962.505000
6889.30    9956.559000
6890.94    9867.756000
6892.57    9796.173000
6894.21    9845.273000
6895.85    9652.266000
6897.48    9672.705000
6899.12    9784.701000
6900.76    10203.810000
6902.39    10165.580000
6904.03    10201.850000
6905.66    10264.460000
6907.30    10419.220000
6908.94    10462.770000
6910.57    10414.570000
6912.21    10317.660000
6913.85    10431.480000
6915.48    10673.970000
6917.12    10769.990000
6918.76    10757.120000
6920.39    10735.490000
6922.03    10766.670000
6923.66    10789.230000
6925.30    10816.280000
6926.94    10579.970000
6928.57    10627.930000
6930.21    10645.160000
6931.84    10639.580000
6933.48    10610.420000
6935.12    10855.780000
6936.75    10950.570000
6938.39    10764.030000
6940.02    10547.670000
6941.66    10574.710000
6943.30    10603.670000
6944.93    10591.760000
6946.57    10636.780000
6948.21    10537.100000
6949.84    10494.800000
6951.48    10903.880000
6953.11    10487.110000
6954.75    10470.040000
6956.39    10545.960000
6958.02    10540.800000
6959.66    10572.540000
6961.30    10677.860000
6962.93    10823.990000
6964.57    11220.850000
6966.20    11108.290000
6967.84    11140.270000
6969.48    11229.850000
6971.11    10905.260000
6972.75    11107.460000
6974.39    11224.590000
6976.02    11290.890000
6977.66    10829.990000
6979.29    11040.670000
6980.93    11081.850000
6982.57    10935.040000
6984.20    11192.330000
6985.84    11259.980000
6987.48    11121.880000
6989.11    10658.650000
6990.75    10833.730000
6992.38    10757.320000
6994.02    10712.060000
6995.66    10843.500000
6997.29    10747.380000
6998.93    10924.490000
7000.56    11048.210000
7002.20    10893.620000
7003.84    10598.430000
7005.47    10553.980000
7007.11    10582.590000
7008.75    10716.860000
7010.38    10841.170000
7012.02    10917.490000
7013.65    10938.670000
7015.29    10758.510000
7016.93    10728.540000
7018.56    10727.170000
7020.20    10725.450000
7021.84    10692.450000
7023.47    10640.160000
7025.11    10559.380000
7026.74    10434.470000
7028.38    10610.650000
7030.02    10836.240000
7031.65    10973.020000
7033.29    11005.300000
7034.93    10471.740000
7036.56    10674.740000
7038.20    10886.440000
7039.83    11129.120000
7041.47    10860.240000
7043.11    10801.720000
7044.74    10731.090000
7046.38    10616.460000
7048.02    10550.910000
7049.65    10688.060000
7051.29    10803.870000
7052.92    10834.070000
7054.56    10757.750000
7056.20    10633.140000
7057.83    10515.820000
7059.47    10547.720000
7061.10    10614.970000
7062.74    10594.110000
7064.38    10556.900000
7066.01    10764.230000
7067.65    10731.010000
7069.28    10672.160000
7070.92    10577.050000
7072.56    10376.370000
7074.19    10413.330000
7075.83    10361.480000
7077.47    10236.820000
7079.10    10625.970000
7080.74    10747.250000
7082.38    10772.040000
7084.01    10690.490000
7085.65    10611.650000
7087.28    10741.100000
7088.92    10775.140000
7090.56    10702.660000
7092.19    10752.110000
7093.83    10765.800000
7095.47    10694.030000
7097.10    10476.090000
7098.74    10617.720000
7100.37    10631.730000
7102.01    10612.480000
7103.65    10615.190000
7105.28    10538.280000
7106.92    10416.170000
7108.56    10347.030000
7110.19    10598.200000
7111.83    10476.820000
7113.46    10439.630000
7115.10    10408.620000
7116.73    10355.600000
7118.37    10290.620000
7120.01    10368.450000
7121.64    10491.860000
7123.28    10497.550000
7124.92    10674.230000
7126.55    10654.800000
7128.19    10502.020000
7129.82    10604.770000
7131.46    10502.120000
7133.10    10603.800000
7134.73    10892.200000
7136.37    10706.120000
7138.01    10597.570000
7139.64    10528.370000
7141.28    10540.050000
7142.91    10428.190000
7144.55    10405.400000
7146.19    10317.500000
7147.82    10120.390000
7149.46    10023.520000
7151.10    9964.461000
7152.73    9915.673000
7154.37    9941.038000
7156.00    9776.674000
7157.64    9671.880000
7159.28    9575.145000
7160.91    9500.914000
7162.55    9378.784000
7164.19    9292.338000
7165.82    9193.125000
7167.46    9047.745000
7169.09    8907.833000
7170.73    8765.340000
7172.37    8598.389000
7174.00    8350.498000
7175.64    8308.739000
7177.27    8281.276000
7178.91    8248.145000
7180.55    8196.582000
7182.18    7842.264000
7183.82    7518.213000
7185.46    7172.147000
7187.09    7134.378000
7188.73    7348.846000
7190.36    7429.818000
7192.00    7353.585000
7193.64    7336.238000
7195.27    7571.147000
7196.91    7752.564000
7198.55    7867.210000
7200.18    7761.437000
7201.82    7722.428000
7203.45    7689.012000
7205.09    7695.597000
7206.73    7863.545000
7208.36    8094.061000
7210.00    8331.440000
7211.64    8600.217000
7213.27    8363.030000
7214.91    8189.727000
7216.54    8088.473000
7218.18    8353.633000
7219.82    8375.056000
7221.45    8378.525000
7223.09    8351.219000
7224.73    8193.139000
7226.36    8154.103000
7228.00    8176.790000
7229.63    8194.739000
7231.27    7757.608000
7232.91    7473.720000
7234.54    7503.966000
7236.18    7738.339000
7237.81    7679.739000
7239.45    7728.546000
7241.09    7741.185000
7242.72    7714.543000
7244.36    7614.876000
7246.00    7711.619000
7247.63    7771.506000
7249.27    7795.072000
7250.90    7619.215000
7252.54    7521.927000
7254.18    7501.401000
7255.81    7673.584000
7257.45    7810.390000
7259.09    7829.280000
7260.72    7772.665000
7262.36    7552.318000
7263.99    7653.493000
7265.63    7831.194000
7267.27    7985.957000
7268.90    8005.914000
7270.54    8004.464000
7272.18    7884.712000
7273.81    7726.273000
7275.45    7649.165000
7277.08    7541.252000
7278.72    7657.387000
7280.36    7870.979000
7281.99    8028.866000
7283.63    7867.924000
7285.27    7945.389000
7286.90    8146.597000
7288.54    7757.161000
7290.17    7708.334000
7291.81    7694.545000
7293.44    7714.318000
7295.08    7967.142000
7296.72    7781.229000
7298.35    7733.549000
7299.99    7905.330000
7301.63    7584.402000
7303.26    7494.960000
7304.90    7579.033000
7306.53    8023.482000
7308.17    7828.730000
7309.81    7880.859000
7311.44    8032.530000
7313.08    8416.510000
7314.72    7986.255000
7316.35    8046.060000
7317.99    8180.265000
7319.62    8279.599000
7321.26    8329.303000
7322.90    8296.130000
7324.53    8251.607000
7326.17    8345.470000
7327.81    8378.241000
7329.44    8469.564000
7331.08    8558.601000
7332.72    8416.411000
7334.35    8552.361000
7335.99    8685.985000
7337.62    8790.928000
7339.26    8639.189000
7340.90    8461.399000
7342.53    8531.171000
7344.17    8822.078000
7345.80    8858.153000
7347.44    8633.123000
7349.08    8496.974000
7350.71    8487.737000
7352.35    8412.668000
7353.98    8344.363000
7355.62    8367.314000
7357.26    8595.881000
7358.89    8402.355000
7360.53    8329.553000
7362.17    8293.030000
7363.80    8335.884000
7365.44    8644.537000
7367.07    8572.842000
7368.71    8497.820000
7370.35    8694.321000
7371.98    8685.357000
7373.62    8627.937000
7375.26    8586.925000
7376.89    8759.321000
7378.53    8527.290000
7380.16    8360.498000
7381.80    8227.289000
7383.44    8311.262000
7385.07    8234.950000
7386.71    8258.441000
7388.35    8312.847000
7389.98    8329.484000
7391.62    8352.905000
7393.25    8372.557000
7394.89    8373.431000
7396.53    8632.382000
7398.16    8507.383000
7399.80    8441.456000
7401.44    8432.913000
7403.07    8662.716000
7404.71    8646.101000
7406.34    8565.479000
7407.98    8429.045000
7409.62    8218.277000
7411.25    8293.631000
7412.89    8423.236000
7414.52    8655.167000
7416.16    8631.431000
7417.80    8564.516000
7419.43    8533.260000
7421.07    8681.500000
7422.71    8811.300000
7424.34    8804.104000
7425.98    8728.489000
7427.61    8515.228000
7429.25    8477.634000
7430.89    8455.781000
7432.52    8466.594000
7434.16    8763.607000
7435.80    8686.039000
7437.43    8527.885000
7439.07    8322.947000
7440.70    8463.677000
7442.34    8671.664000
7443.98    8851.906000
7445.61    8997.422000
7447.25    8683.571000
7448.89    8530.353000
7450.52    8456.233000
7452.16    8455.753000
7453.79    8398.193000
7455.43    8479.557000
7457.07    8555.535000
7458.70    8665.291000
7460.34    8517.535000
7461.98    8391.543000
7463.61    8391.475000
7465.25    8669.135000
7466.88    8573.161000
7468.52    8577.659000
7470.16    8575.972000
7471.79    8555.993000
7473.43    8488.063000
7475.06    8480.289000
7476.70    8500.344000
7478.34    8625.923000
7479.97    8828.730000
7481.61    8904.504000
7483.24    8895.082000
7484.88    8623.612000
7486.52    8535.158000
7488.15    8633.967000
7489.79    8764.769000
7491.43    8490.969000
7493.06    8620.258000
7494.70    8620.881000
7496.34    8527.563000
7497.97    8537.980000
7499.61    8271.652000
7501.24    8292.443000
7502.88    8576.640000
7504.52    8231.785000
7506.15    8423.637000
7507.79    8375.815000
7509.43    8039.772000
7511.06    8066.580000
7512.70    8179.991000
7514.33    8225.861000
7515.97    8161.746000
7517.60    8319.554000
7519.24    8302.722000
7520.88    8268.076000
7522.52    8270.420000
7524.15    8232.810000
7525.79    8411.514000
7527.42    8580.328000
7529.06    8598.913000
7530.69    8662.720000
7532.33    8573.711000
7533.97    8434.525000
7535.60    8305.717000
7537.24    8316.008000
7538.88    8257.318000
7540.51    8184.032000
7542.15    8459.352000
7543.78    8305.135000
7545.42    8253.223000
7547.06    8244.815000
7548.69    8285.210000
7550.33    8123.941000
7551.97    8174.352000
7553.60    8376.643000
7555.24    8205.305000
7556.88    8201.613000
7558.51    8149.443000
7560.15    8038.951000
7561.78    8057.980000
7563.42    8011.904000
7565.06    7984.967000
7566.69    8011.239000
7568.33    8218.231000
7569.96    8220.275000
7571.60    8169.491000
7573.24    8066.545000
7574.87    8011.420000
7576.51    7959.483000
7578.15    7947.500000
