#Wavelength     Flux    Sky Spectrum 
#[Angstrom]   [Counts]     [Counts]
4579.10     6.354489     5.073019
4580.31     6.973071     5.036057
4581.53     7.515920     3.723599
4582.74     4.927373     6.186598
4583.96     4.985347     7.567783
4585.17     9.018354     4.975310
4586.38     4.301623     8.480356
4587.60     4.555939     6.322278
4588.81     6.688117     3.103876
4590.03     6.796455     5.989421
4591.24    20.003508     3.030391
4592.46    20.511040     2.360685
4593.67     9.988952     4.507963
4594.89     5.994325     5.004415
4596.10     7.899351     5.266119
4597.32    11.274078     3.622946
4598.53    11.400331     3.563651
4599.74     6.543766     6.112841
4600.96     2.208493     6.172297
4602.17    10.651414     5.733620
4603.39    11.426270     6.504527
4604.60     5.339911     5.455637
4605.82    13.673401     1.137823
4607.03     7.403609     3.757634
4608.25     9.120893     4.005141
4609.46    19.050945     2.234167
4610.68    14.399242     4.972174
4611.89     7.911582     3.118796
4613.10     7.833483     5.565165
4614.32    10.931183     7.766480
4615.53    10.839375     4.908887
4616.75     8.645543     5.819219
4617.96    13.367661     5.151235
4619.18    13.084317     3.046387
4620.39     7.436542     3.462477
4621.61     8.007458     6.804509
4622.82     5.853944     7.595315
4624.04     5.103629     5.082016
4625.25    10.937727     2.133469
4626.46    14.637179     2.179816
4627.68     5.688616     4.872468
4628.89    10.100432     3.216968
4630.11    14.685309     1.817755
4631.32     7.461652     3.519641
4632.54     0.991233     4.991935
4633.75     7.923984     5.036569
4634.97    11.440559     5.103579
4636.18    11.145384     4.636948
4637.40    10.530072     5.539358
4638.61     8.739595     8.122776
4639.82    15.185732     3.233401
4641.04    11.693841     3.387020
4642.25     6.879107     6.661572
4643.47    11.465022     5.857904
4644.68    12.110088     5.091960
4645.90    11.289013     4.300298
4647.11    10.573042     3.706269
4648.33     9.567787     4.543354
4649.54     7.792307     6.061137
4650.76     7.389152     5.288912
4651.97    14.011955     3.376843
4653.18    15.007812     3.435907
4654.40     9.104228     6.021525
4655.61    10.833153     6.794823
4656.83    22.527794     2.471310
4658.04    15.110768     2.599080
4659.26     7.246798     6.085628
4660.47    10.828764     6.398869
4661.69    16.449398     3.928895
4662.90    16.931084     5.611974
4664.12     7.595453     7.642472
4665.33    10.376171     7.959404
4666.54    18.401543     5.985836
4667.76    15.449911     2.606456
4668.97    12.163548     1.675471
4670.19    13.117007     6.305619
4671.40    19.614969     4.750354
4672.62    15.652794     4.270516
4673.83     2.792351     7.939764
4675.05     4.609644     4.132631
4676.26     9.988008     5.926102
4677.47    11.774011     8.190683
4678.69    12.640402     7.303870
4679.90    12.525825     5.765487
4681.12    11.992898     5.001944
4682.33    20.025707     3.278181
4683.55    18.070774     2.903149
4684.76    13.186384     2.963279
4685.98     9.000887     5.271106
4687.19     4.033358     7.865143
4688.41     9.970678     3.308980
4689.62    13.686157     5.465124
4690.83     9.790947     7.665849
4692.05     6.699711     6.527489
4693.26     8.130661     5.984352
4694.48     7.103179     6.017727
4695.69     7.097630     5.234556
4696.91    17.746227     4.750685
4698.12    14.502978     5.580127
4699.34     4.885470     5.737458
4700.55    13.357987     3.912433
4701.77    12.734896     3.744927
4702.98     8.684422     6.165961
4704.19     8.658440     7.360281
4705.41    13.125595     6.683455
4706.62    17.456116     5.841172
4707.84    17.092485     5.024581
4709.05    13.350321     4.825556
4710.27     8.509625     5.876809
4711.48    13.536246     5.134762
4712.70    20.895124     1.968731
4713.91    16.285112     1.225911
4715.13    10.943777     4.855501
4716.34    14.581726     3.306297
4717.55     6.637258     5.043523
4718.77     9.914930     7.179424
4719.98    22.274990     5.789795
4721.20    13.886676     7.089929
4722.41    16.869499     9.407132
4723.63    12.721875     3.709174
4724.84    21.024956     3.337131
4726.06    23.934761     3.866354
4727.27    10.995656     1.410756
4728.49    13.966202     8.810464
4729.70    11.678495    13.110716
4730.91    17.609695    10.382028
4732.13    10.817739     8.798994
4733.34     6.583085     6.108626
4734.56    22.496128     0.730757
4735.77    19.825418     3.666090
4736.99     5.759194     7.745035
4738.20     8.278358     6.383283
4739.42    18.624615     4.547317
4740.63    20.642529     5.247794
4741.85    13.874755     6.127643
4743.06     5.925451     7.018528
4744.27    13.422876     6.086454
4745.49    11.741250     6.990305
4746.70    10.321672     8.599175
4747.92    11.984541     9.122892
4749.13     7.071571     7.663001
4750.35    14.182121     3.201534
4751.56    16.357941     4.475082
4752.78    10.907722     4.109283
4753.99    16.040737     2.722339
4755.21    24.233402     1.069801
4756.42    16.360516     0.389333
4757.63    12.646218     9.300036
4758.85    17.488037     8.598014
4760.06     9.531713     4.946200
4761.28    10.328336     3.220214
4762.49    22.533773     3.523901
4763.71    17.394382     7.281500
4764.92     9.611768     9.988763
4766.14     9.049992     8.019027
4767.35    16.490910     5.993206
4768.57    11.652678     9.350723
4769.78     5.039605     9.640594
4770.99    14.060247     4.057980
4772.21     5.830538    10.483788
4773.42     8.566351     8.557110
4774.64    23.025244     6.204286
4775.85    18.612217     7.906245
4777.07     8.400010     9.199170
4778.28    19.511051     7.722593
4779.50    17.563341     4.046885
4780.71    15.228043     6.935178
4781.92    14.658513     7.950983
4783.14    19.260590     6.448809
4784.35    22.538977     5.791114
4785.57    14.077650     7.424321
4786.78     7.684343    12.877125
4788.00    16.797007     8.917390
4789.21    17.688761     4.880172
4790.43    20.788025     5.952968
4791.64    25.138033     6.825992
4792.86    17.680428     6.103996
4794.07    19.091581     8.782443
4795.28    14.488426     9.355803
4796.50    18.109135     7.768666
4797.71    20.486076     6.538911
4798.93    17.922382     5.601799
4800.14    17.500368     5.104546
4801.36    11.210188     6.906053
4802.57    13.694777     7.024469
4803.79    16.879896     7.314418
4805.00    20.000553     5.675394
4806.22    19.786497     6.036937
4807.43    14.617353     8.893355
4808.64    14.952142     5.138296
4809.86    14.437469     6.209229
4811.07    13.327267     8.637318
4812.29    19.747408     8.769881
4813.50    18.732393     7.524505
4814.72     8.877878     4.136532
4815.93    16.760750     0.846893
4817.15    15.953952     9.640638
4818.36    14.238145     8.661410
4819.58    20.851177     4.669695
4820.79    29.620640     5.260639
4822.00    28.844994     6.282298
4823.22    21.051624     7.980775
4824.43    23.801018     7.468519
4825.65    20.144798     5.093616
4826.86    22.152992     6.698701
4828.08    25.713661     7.172490
4829.29    19.945030     3.627356
4830.51    17.996092     3.997847
4831.72    19.541353     5.202489
4832.94    14.550762    10.575809
4834.15    26.538212     6.968229
4835.36    27.926987     3.379071
4836.58    12.376536     7.305851
4837.79    23.127089     4.959726
4839.01    23.309826     4.353565
4840.22    16.433327     9.509664
4841.44    24.655815     6.287021
4842.65    33.084629     3.770267
4843.87    29.401909     6.827465
4845.08    26.832943     2.951146
4846.30    17.482018     5.252611
4847.51    12.545077     8.736182
4848.72    16.149738     7.895061
4849.94    22.502199     7.427743
4851.15    21.605564     9.190710
4852.37    16.042532     7.902565
4853.58    24.416479     4.611264
4854.80    29.951824     1.626754
4856.01    23.918947     5.367263
4857.23    19.709332     7.960668
4858.44    24.243479     5.727748
4859.66    25.876900     7.116030
4860.87    21.253107     9.700519
4862.08    23.007175    10.504976
4863.30    19.232874     7.994093
4864.51    21.891623     4.832155
4865.73    30.529263     5.857378
4866.94    24.675289     8.989975
4868.16    21.091192     5.521167
4869.37    22.763279     4.458036
4870.59    30.777988     6.278387
4871.80    30.419441     7.020639
4873.02    21.532433     7.293123
4874.23    19.952963     9.054015
4875.44    20.193556     8.446615
4876.66    27.769283     5.094618
4877.87    20.770641     7.777403
4879.09    16.096214     9.575274
4880.30    22.386509     6.634345
4881.52    18.921041    10.318536
4882.73    19.889887    18.064289
4883.95    17.575310    10.522051
4885.16    10.194715     9.928581
4886.37    20.268145     9.793718
4887.59    33.735432     5.519159
4888.80    20.809973    12.053706
4890.02    23.184618     8.558845
4891.23    23.322983     9.235319
4892.45    20.914555     9.019889
4893.66    24.147341     5.968041
4894.88    26.561705     4.872821
4896.09    25.021809     5.003265
4897.31    34.974556     6.020798
4898.52    24.132999     5.320035
4899.73    23.982376     9.174150
4900.95    28.937925     9.355621
4902.16    20.055765     3.616990
4903.38    22.827740     5.937046
4904.59    28.898949     7.387726
4905.81    24.856857    11.334859
4907.02    24.335215     9.803419
4908.24    24.584600     7.175735
4909.45    18.613634    10.273270
4910.67    21.642952    10.027963
4911.88    27.638123    10.110631
4913.09    32.112324     8.844336
4914.31    39.359062     7.576478
4915.52    36.003437     8.534315
4916.74    22.747372     8.755033
4917.95    31.983585     4.408801
4919.17    33.746937     3.061650
4920.38    22.197910     7.815914
4921.60    19.247192     9.905607
4922.81    22.454523     9.475739
4924.03    20.341383    11.995537
4925.24    33.543804     8.661271
4926.45    33.395157     6.321847
4927.67    24.340504    10.030511
4928.88    20.442877    11.341558
4930.10    24.216368     7.404725
4931.31    30.961788     6.010505
4932.53    34.902603     4.615347
4933.74    33.526581     8.773070
4934.96    33.845390     8.459003
4936.17    32.512894     6.075724
4937.39    31.990009     8.051401
4938.60    38.585110     7.802563
4939.81    20.267265    12.974974
4941.03    29.190281    13.102576
4942.24    33.185917    12.433040
4943.46    17.606855    12.192965
4944.67    27.320604     6.690493
4945.89    46.892029     5.345744
4947.10    30.611012    12.282047
4948.32    26.087893    12.478230
4949.53    39.445152     7.371534
4950.75    36.815483     7.425623
4951.96    22.239292    10.915741
4953.17    23.369888    11.809943
4954.39    34.877407     6.767102
4955.60    29.768366     9.110354
4956.82    18.715372    12.341762
4958.03    22.248667     8.039877
4959.25    22.691031    13.455874
4960.46    28.871685    13.363220
4961.68    36.140991     9.871220
4962.89    24.429735    11.860970
4964.11    11.397864    13.191856
4965.32    25.875038     7.991046
4966.53    25.474007    14.198359
4967.75    20.619385    11.469140
4968.96    17.283216     9.458637
4970.18    24.609535    10.250456
4971.39    37.126030     5.776997
4972.61    28.747581     6.726015
4973.82    30.369545     8.339524
4975.04    27.360296    10.718715
4976.25    32.629471    12.278761
4977.47    35.893177    11.951457
4978.68     9.410345    11.081421
4979.89    16.022678     8.166058
4981.11    13.366941    10.115259
4982.32    23.056927    13.046973
4983.54    36.271942    14.631343
4984.75    22.740877    14.792789
4985.97    29.955673     9.302679
4987.18    28.251223    12.244280
4988.40    29.978045    13.805498
4989.61    29.126022    11.387613
4990.82    19.720003    12.336867
4992.04    29.431099    13.340719
4993.25    43.696301     6.526675
4994.47    34.893806     6.316959
4995.68    29.367109    10.128667
4996.90    37.512157    11.388348
4998.11    34.026440    13.005949
4999.33    35.817822    10.750525
5000.54    26.996693     8.591959
5001.76    27.956144     7.489161
5002.97    38.376808     8.870576
5004.18    36.964699    12.032793
5005.40    36.293720    10.377804
5006.61    25.005619     9.765903
5007.83    25.522587    10.098471
5009.04    34.693138     9.948514
5010.26    31.335758    10.030683
5011.47    25.877733    10.806726
5012.69    33.834583    12.108979
5013.90    50.574581    10.548805
5015.12    54.348511     8.758403
5016.33    43.972965    10.344483
5017.54    41.298717    12.040041
5018.76    36.226986    10.237522
5019.97    35.962547    11.194949
5021.19    43.990597     8.567619
5022.40    44.135593     4.125672
5023.62    27.668724     9.696152
5024.83    27.182436    11.599857
5026.05    31.933422    14.143751
5027.26    36.022945    13.850286
5028.48    32.744019     9.166261
5029.69    26.548965     7.036484
5030.90    51.653664     6.290867
5032.12    42.657085     5.212696
5033.33    27.333658     8.384911
5034.55    36.056389    10.395705
5035.76    42.870480     6.953232
5036.98    48.176144    15.296276
5038.19    36.419632    15.813527
5039.41    29.868347    11.364125
5040.62    35.995575     9.458847
5041.84    36.987484     7.993334
5043.05    40.640228    10.011511
5044.26    45.041477     7.637012
5045.48    39.372997     9.147430
5046.69    33.105339    13.046368
5047.91    38.971809     9.034420
5049.12    37.572933     7.527973
5050.34    37.987095    10.631697
5051.55    41.880150    11.973074
5052.77    40.824444    12.702758
5053.98    35.984077    14.085184
5055.20    41.434959     5.626511
5056.41    37.155354    11.391163
5057.62    29.317329    18.189894
5058.84    29.563660    13.952507
5060.05    33.831501    11.039433
5061.27    37.581059    11.463289
5062.48    37.892811    13.256956
5063.70    41.835636    11.427930
5064.91    44.193687     9.154774
5066.13    35.377079    13.651167
5067.34    35.083710    16.874870
5068.56    36.779396    10.726214
5069.77    37.543854     7.163956
5070.98    42.144264    10.059271
5072.20    47.253967     8.034425
5073.41    38.998863     9.930295
5074.63    39.532543     7.362255
5075.84    37.437748     7.916386
5077.06    25.449493    16.829615
5078.27    30.675919    19.254547
5079.49    38.213566    15.755752
5080.70    45.048756    12.147934
5081.91    43.785011     8.558802
5083.13    35.875862     4.915304
5084.34    40.150810     7.528256
5085.56    39.851074    16.527401
5086.77    33.511955    21.035089
5087.99    35.150730    16.025106
5089.20    44.993374    11.992724
5090.42    39.580139    20.164158
5091.63    32.957619    15.671807
5092.85    40.806461    10.830449
5094.06    47.028458    17.372126
5095.27    35.308392    19.401382
5096.49    41.987942    10.384365
5097.70    44.323750    12.922056
5098.92    35.270580    13.603603
5100.13    28.629900     4.758381
5101.35    29.427671    10.186258
5102.56    34.118065    11.128599
5103.78    41.447571    12.879805
5104.99    47.006050    12.593255
5106.21    48.019119     6.998893
5107.42    49.029491    12.668959
5108.63    47.592262    13.569538
5109.85    44.721695     8.598706
5111.06    45.858616     7.447528
5112.28    48.413692    11.783998
5113.49    36.958340    11.698261
5114.71    35.193455    10.323877
5115.92    32.508110    12.142571
5117.14    24.284744    15.114573
5118.35    36.625648    14.298660
5119.57    34.012161    13.184315
5120.78    32.601513    13.018946
5121.99    38.780617    14.706855
5123.21    36.136818    17.000229
5124.42    33.760696    14.345915
5125.64    46.332100    10.503595
5126.85    41.981663    10.917005
5128.07    29.075565    12.942847
5129.28    51.788376     9.617817
5130.50    37.445999     7.238244
5131.71    27.726967    10.822355
5132.93    41.629539    14.096773
5134.14    45.041542    12.989837
5135.35    36.045818    16.664209
5136.57    45.464828    14.076015
5137.78    52.631390    10.282207
5139.00    42.942181    12.432042
5140.21    42.854828    14.910971
5141.43    51.640118    14.155447
5142.64    42.141308    15.025927
5143.86    38.617245    15.562120
5145.07    58.930649    13.965099
5146.29    41.156799    19.820642
5147.50    22.680843    24.681240
5148.71    29.930853    19.348835
5149.93    44.658672    10.579020
5151.14    38.996117    13.076409
5152.36    30.555946    17.334412
5153.57    36.050121    20.858164
5154.79    41.234745    21.611202
5156.00    34.818794    16.435337
5157.22    47.895329     9.757692
5158.43    51.192284    10.974633
5159.65    46.674934    12.360978
5160.86    50.148212     8.977381
5162.07    51.336136    11.087076
5163.29    55.669113     7.202981
5164.50    52.589073     5.856565
5165.72    42.962761    11.995927
5166.93    41.868446    15.079657
5168.15    43.761272    12.285032
5169.36    54.521080    10.667347
5170.58    60.129784     8.967543
5171.79    49.262180     5.943541
5173.01    46.786922    12.543050
5174.22    46.475513    17.237476
5175.43    48.648411    16.374443
5176.65    49.549480    12.635777
5177.86    39.853024     7.885159
5179.08    51.165581    12.914806
5180.29    56.303539    18.372601
5181.51    46.375881    13.593801
5182.72    48.968346     5.907717
5183.94    44.881519    13.346621
5185.15    51.030632    13.164819
5186.36    53.366596     8.573721
5187.58    38.001324    16.703466
5188.79    52.894402    14.765372
5190.01    46.027756    12.088652
5191.22    33.202026    11.464395
5192.44    42.998226    11.040196
5193.65    31.298328    16.453005
5194.87    34.596905    14.360197
5196.08    45.577904    17.598265
5197.30    46.069721    25.896832
5198.51    49.146152    15.844214
5199.72    51.936172    14.758512
5200.94    51.043617    16.850399
5202.15    47.456661    13.640088
5203.37    47.739738    13.012983
5204.58    58.307838    12.765499
5205.80    47.767319    13.946537
5207.01    30.077803    16.500534
5208.23    42.329586    17.184727
5209.44    53.310722    13.982569
5210.66    55.020782    13.282523
5211.87    48.422871    13.685230
5213.08    38.336372    11.977689
5214.30    39.439857    14.810148
5215.51    59.926079    16.642826
5216.73    65.833458    15.541120
5217.94    41.099670    14.006788
5219.16    32.268288    13.442751
5220.37    37.005600    16.572441
5221.59    46.810440    19.568029
5222.80    51.885792    17.861698
5224.02    43.407391    13.169892
5225.23    44.795872    10.482774
5226.44    47.431259    12.204395
5227.66    44.059196    15.070196
5228.87    50.172771    13.658636
5230.09    53.757977    12.156240
5231.30    38.729713    19.920765
5232.52    25.532194    26.609575
5233.73    44.496876    14.752018
5234.95    41.167622    15.337989
5236.16    38.857693    19.541643
5237.38    53.276962    18.061285
5238.59    53.445606    20.099619
5239.80    45.054077    16.197638
5241.02    44.988457    11.243588
5242.23    54.250187     9.862638
5243.45    57.647820     9.707879
5244.66    50.094383    12.078932
5245.88    44.786762     9.898720
5247.09    47.636448    10.236296
5248.31    47.502472    21.376574
5249.52    33.557518    16.322636
5250.74    31.583490    14.743599
5251.95    43.384041    18.419773
5253.16    46.473618    10.958382
5254.38    51.146214    20.195211
5255.59    46.499058    23.698856
5256.81    38.939873    16.513218
5258.02    45.259079    18.126724
5259.24    44.122433    12.980415
5260.45    38.541775     9.629206
5261.67    38.590134    12.389647
5262.88    43.599533    13.714719
5264.10    43.240818    16.087049
5265.31    47.565132    16.993891
5266.52    47.102116    15.848513
5267.74    32.523849    15.822437
5268.95    51.545204    16.830011
5270.17    54.479725    13.621548
5271.38    35.034821    11.419546
5272.60    42.236671    18.139318
5273.81    36.090435    18.476170
5275.03    31.702888    19.654448
5276.24    38.394901    22.913364
5277.46    36.485817    17.480125
5278.67    37.121189    12.388858
5279.88    42.847015    13.026777
5281.10    45.840126    13.655090
5282.31    39.229206     9.318046
5283.53    31.747849    18.506523
5284.74    38.086849    20.725544
5285.96    50.253735    10.757227
5287.17    43.779568    15.962984
5288.39    36.335510    19.990318
5289.60    32.656406    17.870512
5290.81    34.289970    13.841623
5292.03    46.597836    10.550368
5293.24    47.748085    15.338760
5294.46    43.429466    21.118467
5295.67    44.009678    20.018816
5296.89    40.063206    16.942173
5298.10    39.666725    15.149513
5299.32    44.758118    19.008278
5300.53    51.600285    24.979940
5301.75    58.627499    19.396505
5302.96    59.526291    12.710589
5304.17    58.057735    10.783931
5305.39    56.002419    11.696512
5306.60    42.132587    15.620351
5307.82    46.812840    17.316034
5309.03    59.243408    17.139215
5310.25    47.213619    18.121595
5311.46    39.814671    15.318695
5312.68    47.394691    11.306386
5313.89    60.371464    14.109567
5315.11    63.391705    24.762840
5316.32    52.621525    23.692957
5317.53    46.718037    16.076595
5318.75    54.680595    10.633451
5319.96    60.514954     6.696962
5321.18    48.695488    11.239862
5322.39    45.793285    15.289884
5323.61    57.998184    13.002844
5324.82    45.644810    14.706225
5326.04    41.124828    18.014688
5327.25    54.416618    18.851183
5328.47    64.122612    18.783138
5329.68    54.992756    23.377356
5330.89    58.213310    21.334076
5332.11    60.431496    16.959929
5333.32    40.611427    19.959606
5334.54    55.287773    15.975612
5335.75    63.992893    12.041912
5336.97    52.448845    13.153728
5338.18    55.936260    14.412037
5339.40    49.901413    17.515095
5340.61    52.580353    16.651701
5341.83    64.971893    14.075234
5343.04    51.456638    19.721443
5344.25    51.639484    14.970219
5345.47    63.538292    12.563004
5346.68    65.926727    20.994921
5347.90    67.421951    11.499191
5349.11    64.723022     6.687667
5350.33    66.912605    14.920922
5351.54    76.499184    20.944254
5352.76    60.962723    17.102276
5353.97    48.347786    12.892604
5355.19    49.782200    16.799311
5356.40    44.234745    25.558434
5357.61    49.451225    27.070972
5358.83    55.859749    24.005608
5360.04    53.004566    21.007626
5361.26    53.310669    15.465871
5362.47    59.188797    13.483594
5363.69    61.443466    13.926616
5364.90    57.052467    13.782545
5366.12    61.136440    17.496250
5367.33    61.696194    18.909721
5368.55    53.778038    15.354675
5369.76    49.850777    12.605892
5370.97    61.983696    17.187988
5372.19    83.753975    17.473303
5373.40    89.639481    11.974296
5374.62    60.922844    16.653767
5375.83    47.061333    21.420795
5377.05    48.642681    20.072283
5378.26    46.547863    16.196640
5379.48    56.979614    17.254747
5380.69    56.888462    24.143641
5381.91    50.215492    26.292862
5383.12    60.040810    17.752476
5384.33    63.088905    21.008434
5385.55    62.339684    22.542116
5386.76    61.893841    15.970431
5387.98    54.261162    20.022499
5389.19    60.396652    18.487391
5390.41    68.028351    15.248873
5391.62    60.639843    20.502766
5392.84    61.267693    21.150711
5394.05    69.254898    15.834249
5395.26    71.435455    10.636909
5396.48    64.110489    10.067562
5397.69    70.381157     9.376820
5398.91    66.757706    13.792671
5400.12    49.073719    20.977461
5401.34    60.243622    17.350306
5402.55    67.943863    21.233173
5403.77    69.608131    23.619101
5404.98    76.943451    11.800581
5406.20    60.237480    16.566650
5407.41    59.058460    23.288422
5408.62    72.786301    20.877581
5409.84    51.669708    20.547667
5411.05    41.757439    16.895861
5412.27    51.303856    13.784904
5413.48    61.271294    15.823331
5414.70    69.225960    16.487808
5415.91    80.771294    15.154694
5417.13    85.160118    13.924433
5418.34    68.718727    14.564533
5419.56    54.444496    16.747149
5420.77    64.369392    18.343653
5421.98    86.799583    17.061571
5423.20    82.383469    12.998078
5424.41    71.575798    12.566336
5425.63    67.438179    18.726688
5426.84    71.176857    23.863762
5428.06    91.247139    12.390726
5429.27    81.557182    11.277431
5430.49    48.500744    24.182983
5431.70    58.756180    18.419392
5432.92    68.172150    12.095129
5434.13    62.328533    13.913721
5435.34    58.189880    18.424183
5436.56    60.669235    21.588892
5437.77    78.912575    21.537701
5438.99    91.481476    19.919230
5440.20    67.681381    20.813307
5441.42    52.713062    25.928354
5442.63    53.359531    29.187523
5443.85    56.297222    26.367031
5445.06    65.808197    22.898468
5446.28    65.741760    18.670464
5447.49    66.486282    15.982567
5448.70    85.567123    17.743183
5449.92    74.958275    16.683187
5451.13    59.619915    12.693647
5452.35    67.616028    11.754845
5453.56    66.088310    17.679531
5454.78    67.497559    17.079382
5455.99    74.548836    17.176643
5457.21    70.580956    40.776970
5458.42    53.700817    86.212654
5459.64    55.269375    125.282791
5460.85    83.661308    127.279488
5462.06    95.161049    88.228439
5463.28    79.346924    60.636909
5464.49    62.201714    56.370716
5465.71    71.305298    46.234192
5466.92    82.800934    27.053921
5468.14    79.948013    19.196907
5469.35    70.123215    25.920774
5470.57    74.650032    20.505306
5471.78    72.348511    19.123171
5473.00    64.773804    24.430893
5474.21    72.058937    22.385357
5475.42    82.245499    16.549932
5476.64    77.984459    15.932618
5477.85    66.940643    19.967392
5479.07    79.031601    17.002174
5480.28    78.860870    17.491447
5481.50    68.978539    21.126579
5482.71    77.865288    19.245636
5483.93    72.929611    20.354361
5485.14    59.215218    20.007959
5486.36    60.989361    16.054338
5487.57    82.801407    18.664068
5488.78    82.578354    19.550638
5490.00    67.472588    16.764303
5491.21    75.823242    17.753717
5492.43    77.642654    23.249430
5493.64    87.441498    21.897247
5494.86    104.601456    14.058866
5496.07    75.942558    20.713444
5497.29    61.577866    22.855156
5498.50    75.773643    16.703756
5499.71    72.551254    18.282255
5500.93    72.029915    18.951115
5502.14    77.227974    19.774200
5503.36    78.217842    22.205175
5504.57    75.669060    16.750414
5505.79    78.599396    14.035350
5507.00    81.762650    17.119324
5508.22    71.998291    17.427048
5509.43    67.714561    21.068417
5510.65    68.944084    25.711096
5511.86    65.745117    24.703623
5513.07    61.169518    19.370602
5514.29    58.049419    19.243193
5515.50    65.356407    24.044868
5516.72    88.503998    22.873587
5517.93    91.742935    21.844475
5519.15    74.491653    23.318865
5520.36    65.222839    22.896708
5521.58    76.193222    16.337971
5522.79    77.976456    12.991051
5524.01    67.866356    15.953793
5525.22    85.605545    14.729559
5526.43    88.994888    14.360809
5527.65    70.667961    16.174381
5528.86    63.874901    16.720695
5530.08    73.068443    18.665308
5531.29    82.810715    22.164539
5532.51    81.448502    24.088745
5533.72    77.265457    21.172709
5534.94    81.764854    20.436016
5536.15    84.370468    21.962181
5537.37    72.499664    19.983021
5538.58    91.807625    22.654171
5539.79    106.065086    28.068966
5541.01    78.342766    29.943188
5542.22    74.301201    29.695173
5543.44    73.884354    28.320446
5544.65    60.957874    26.996239
5545.87    64.142448    25.919432
5547.08    76.190750    19.200535
5548.30    77.551125    18.414286
5549.51    62.022137    32.715683
5550.73    57.178036    33.882080
5551.94    67.705986    25.230864
5553.15    78.781517    19.364023
5554.37    74.276009    15.370649
5555.58    70.777779    16.231096
5556.80    76.679161    19.080170
5558.01    81.620964    18.531834
5559.23    75.762558    22.122065
5560.44    74.921875    23.109983
5561.66    88.583687    17.935089
5562.87    87.824997    24.389492
5564.09    70.439529    29.450916
5565.30    55.995869    24.993372
5566.51    65.893410    22.467005
5567.73    84.674034    21.407112
5568.94    93.054207    22.493439
5570.16    84.964088    25.353874
5571.37    75.433388    20.585951
5572.59    77.410324    19.656115
5573.80    85.886765    61.440987
5575.02    77.520523    184.329803
5576.23    58.998230    295.911163
5577.45    58.213112    335.736267
5578.66    92.598740    316.058075
5579.87    112.603882    231.434875
5581.09    103.401863    125.889381
5582.30    84.255020    58.590210
5583.52    72.994347    37.630577
5584.73    70.914688    34.329174
5585.95    72.882477    27.285225
5587.16    75.654366    22.745922
5588.38    78.688583    22.038546
5589.59    83.769119    23.105371
5590.80    88.916336    23.751204
5592.02    79.979958    24.863695
5593.23    69.866653    26.373154
5594.45    78.796440    24.966959
5595.66    101.216347    16.539606
5596.88    92.360428    18.433409
5598.09    58.058659    29.983124
5599.31    62.541332    27.040764
5600.52    84.078613    21.711357
5601.74    95.601410    20.986855
5602.95    91.957123    22.535524
5604.16    86.188614    29.745380
5605.38    87.337486    30.282869
5606.59    93.542526    19.111933
5607.81    92.902946    16.016462
5609.02    84.840683    22.829599
5610.24    85.359612    24.786238
5611.45    105.150772    10.342763
5612.67    90.737373    14.580935
5613.88    66.010681    29.125128
5615.10    85.063622    23.668449
5616.31    106.164703    14.988968
5617.52    102.643608    15.467426
5618.74    84.892906    20.962557
5619.95    87.669991    16.219336
5621.17    92.443283    15.369741
5622.38    90.033188    20.004097
5623.60    93.437675    16.154945
5624.81    87.086189    20.624752
5626.03    73.991142    28.608862
5627.24    69.584518    25.338898
5628.46    74.350410    20.972916
5629.67    82.742119    20.078257
5630.88    87.084229    21.782549
5632.10    82.496063    23.043022
5633.31    79.946419    16.671417
5634.53    86.509346    11.148278
5635.74    96.538414    20.701740
5636.96    95.231407    20.306366
5638.17    85.113770    13.625065
5639.39    77.459496    18.391676
5640.60    71.628723    23.477060
5641.82    66.269684    23.360966
5643.03    69.496948    20.218124
5644.24    92.632179    19.978422
5645.46    93.784325    25.118313
5646.67    74.590210    30.042940
5647.89    80.348465    26.381054
5649.10    85.272438    20.894926
5650.32    88.923721    20.519844
5651.53    102.572845    24.665651
5652.75    98.582939    23.375553
5653.96    81.295677    26.745045
5655.18    75.016251    34.296906
5656.39    93.433365    21.944536
5657.60    87.856995    17.101160
5658.82    61.609257    26.167002
5660.03    70.482697    24.062796
5661.25    77.652596    24.562866
5662.46    76.630150    28.141315
5663.68    83.053535    25.656723
5664.89    76.949158    24.537355
5666.11    84.873909    23.101397
5667.32    107.322395    21.579102
5668.54    80.933640    28.780483
5669.75    70.350792    28.768299
5670.96    97.352264    19.905624
5672.18    100.343811    20.808989
5673.39    93.463486    26.004259
5674.61    95.019638    30.715288
5675.82    97.570816    33.466839
5677.04    67.868088    28.895258
5678.25    51.774334    24.637712
5679.47    79.731270    26.736977
5680.68    87.591560    27.648018
5681.90    87.542122    34.007904
5683.11    90.055397    42.974720
5684.32    76.237534    38.942043
5685.54    77.922424    30.843266
5686.75    95.881767    30.728682
5687.97    101.992188    39.588375
5689.18    94.733566    38.968639
5690.40    79.823563    36.548313
5691.61    68.991371    43.798874
5692.83    77.054985    47.156200
5694.04    82.953644    42.087635
5695.25    72.564331    34.206398
5696.47    62.679588    33.017036
5697.68    75.196808    35.039284
5698.90    91.074203    34.781952
5700.11    81.294464    28.801022
5701.33    97.762100    16.116289
5702.54    109.462517    12.132917
5703.76    77.226372    25.456053
5704.97    70.620636    31.252882
5706.19    80.100845    24.753925
5707.40    80.014122    17.964935
5708.61    82.935493    24.299210
5709.83    91.807693    25.449034
5711.04    92.407021    19.976269
5712.26    70.733521    25.501530
5713.47    58.522781    29.197451
5714.69    72.270058    26.253738
5715.90    96.550835    22.495499
5717.12    91.506348    22.118862
5718.33    72.068848    23.221737
5719.55    68.157280    23.821140
5720.76    79.680183    25.770000
5721.97    82.559212    24.932739
5723.19    80.038879    19.976912
5724.40    98.512848    16.249880
5725.62    97.909714    20.814714
5726.83    87.267250    24.677149
5728.05    101.726097    18.284813
5729.26    102.481636    23.982943
5730.48    92.052422    31.300495
5731.69    88.724701    25.123993
5732.91    83.084991    22.113222
5734.12    86.565445    23.829832
5735.33    95.101791    24.119295
5736.55    81.538773    19.609409
5737.76    68.144043    18.194485
5738.98    74.287331    20.027679
5740.19    92.957520    19.358118
5741.41    91.315933    23.549664
5742.62    76.726364    26.825581
5743.84    74.191292    23.145374
5745.05    79.425377    26.596371
5746.27    83.892700    30.140345
5747.48    80.866592    27.205564
5748.69    70.048050    27.398237
5749.91    68.799782    27.728384
5751.12    76.068626    24.899357
5752.34    73.152473    21.383152
5753.55    73.718994    21.969185
5754.77    81.143639    19.882502
5755.98    85.930359    11.622376
5757.20    83.076164    22.193871
5758.41    74.228233    39.528168
5759.63    65.738350    41.842014
5760.84    65.619713    33.245312
5762.05    76.873741    23.712759
5763.27    89.813362    20.940067
5764.48    88.193222    27.554131
5765.70    85.702759    43.208523
5766.91    88.200462    55.375443
5768.13    88.563225    54.285183
5769.34    85.744072    66.421783
5770.56    75.993301    75.192284
5771.77    64.752808    55.553246
5772.99    77.417099    33.119446
5774.20    101.695862    21.458643
5775.41    104.980553    20.739016
5776.63    70.781548    24.169071
5777.84    72.462517    24.308617
5779.06    103.170158    24.132223
5780.27    82.654976    30.607834
5781.49    87.374062    26.286844
5782.70    99.668533    20.317808
5783.92    59.798210    29.864285
5785.13    49.955681    32.527935
5786.35    65.168747    38.941101
5787.56    75.602821    57.281441
5788.77    104.188622    59.401241
5789.99    95.070457    62.235241
5791.20    61.867813    69.134834
5792.42    101.666214    53.442192
5793.63    108.780685    40.441147
5794.85    70.934067    37.553417
5796.06    72.033821    30.935413
5797.28    70.142044    32.190685
5798.49    74.274467    32.895947
5799.70    102.901459    24.535542
5800.92    98.446716    28.599634
5802.13    83.386330    28.439072
5803.35    81.795670    18.892241
5804.56    67.899673    30.605633
5805.78    79.720314    33.550987
5806.99    106.155678    20.785177
5808.21    89.379517    22.387980
5809.42    83.264458    27.102552
5810.64    100.589752    23.879282
5811.85    110.513641    16.274296
5813.06    108.395035    21.229582
5814.28    104.702423    27.182354
5815.49    103.948914    21.800617
5816.71    92.804497    20.464037
5817.92    81.775490    25.498138
5819.14    78.118576    29.981077
5820.35    74.722725    26.912308
5821.57    78.029495    24.361406
5822.78    84.232140    26.249086
5824.00    82.311096    28.702057
5825.21    79.818947    28.288206
5826.42    83.445793    25.262264
5827.64    89.332581    21.150467
5828.85    81.379868    16.099619
5830.07    72.457344    18.118628
5831.28    73.809059    27.351460
5832.50    74.825508    29.064650
5833.71    80.992081    24.864344
5834.93    83.782883    27.287676
5836.14    67.569984    44.936417
5837.36    68.940475    53.263493
5838.57    81.719292    43.885216
5839.78    78.188705    31.070568
5841.00    84.479256    34.485325
5842.21    96.369667    37.964996
5843.43    99.722870    27.986797
5844.64    101.922279    28.541843
5845.86    103.155151    30.648560
5847.07    101.144600    26.138071
5848.29    94.749908    25.427044
5849.50    80.626472    29.747047
5850.72    73.459389    34.196739
5851.93    88.206444    34.162701
5853.14    90.521988    34.506790
5854.36    83.352921    34.802654
5855.57    86.200020    31.342718
5856.79    88.660881    24.474617
5858.00    99.687248    20.498114
5859.22    106.821129    24.256783
5860.43    70.014992    33.418194
5861.65    63.972389    40.523129
5862.86    92.208572    40.922424
5864.08    76.729317    36.440586
5865.29    81.191109    34.665363
5866.50    104.774414    36.224274
5867.72    99.749390    36.945473
5868.93    94.528870    36.783096
5870.15    94.886368    33.635029
5871.36    93.209457    28.427071
5872.58    92.007935    28.538607
5873.79    84.914375    30.524620
5875.01    77.928711    27.247618
5876.22    87.442253    17.840038
5877.44    85.984550    22.000929
5878.65    74.506271    32.221958
5879.86    78.791405    25.191544
5881.08    86.973106    19.186157
5882.29    86.931137    20.635828
5883.51    80.957596    24.822828
5884.72    86.896263    31.452799
5885.94    87.949379    42.504929
5887.15    81.519012    55.187759
5888.37    97.621742    59.584446
5889.58    98.179489    51.782196
5890.80    80.671509    41.831554
5892.01    86.489738    43.128384
5893.22    93.956490    39.072056
5894.44    83.763641    38.549076
5895.65    62.147049    53.889587
5896.87    60.711102    50.961475
5898.08    66.159439    32.324852
5899.30    64.287102    21.002583
5900.51    78.015610    28.387892
5901.73    95.121704    29.849472
5902.94    100.015671    21.999004
5904.15    93.869858    30.620079
5905.37    89.567139    32.660290
5906.58    88.742569    26.814789
5907.80    85.506500    30.231838
5909.01    86.051315    29.118891
5910.23    89.976135    24.029392
5911.44    89.483963    23.538429
5912.66    76.531738    27.598108
5913.87    67.712189    32.884819
5915.09    74.393288    35.056580
5916.30    85.184616    31.712824
5917.51    84.746025    29.409081
5918.73    84.905678    28.850981
5919.94    102.671844    26.992390
5921.16    91.846756    33.358498
5922.37    73.012337    39.003155
5923.59    84.962776    33.232857
5924.80    90.820168    31.063545
5926.02    84.270302    32.246159
5927.23    84.607643    33.637524
5928.45    108.220642    38.386955
5929.66    111.855049    33.844479
5930.87    84.974533    26.020941
5932.09    71.912094    34.330498
5933.30    104.320175    35.451710
5934.52    122.931763    29.583040
5935.73    74.984085    30.429937
5936.95    69.362572    25.692907
5938.16    87.190498    27.938053
5939.38    76.157135    41.273941
5940.59    65.702919    36.567066
5941.81    88.221672    24.249214
5943.02    118.013603    20.003569
5944.23    95.579308    24.499928
5945.45    84.028969    29.261518
5946.66    91.998550    32.575157
5947.88    82.265968    36.624924
5949.09    81.870209    35.576283
5950.31    91.420799    34.232704
5951.52    95.983932    36.131668
5952.74    94.634003    32.154331
5953.95    102.218063    27.958897
5955.17    112.069344    27.990641
5956.38    96.126434    28.305695
5957.59    80.856247    30.686529
5958.81    77.791725    33.047432
5960.02    75.593979    31.524115
5961.24    74.369156    30.810656
5962.45    75.618675    30.885059
5963.67    84.542740    29.391399
5964.88    108.089226    27.313509
5966.10    110.428284    27.585524
5967.31    89.417915    30.840925
5968.53    94.534645    33.733212
5969.74    95.188797    33.028374
5970.95    93.154434    28.468636
5972.17    112.648010    23.566360
5973.38    94.560005    24.185987
5974.60    67.931313    25.932476
5975.81    83.448914    22.801813
5977.03    100.826279    19.998278
5978.24    98.411888    25.410748
5979.46    84.499832    35.673531
5980.67    83.799797    35.202816
5981.89    90.206024    28.296446
5983.10    88.122429    25.114433
5984.31    73.102676    29.810146
5985.53    72.110023    30.145878
5986.74    83.290314    24.672934
5987.96    83.815590    22.816063
5989.17    63.261200    33.078751
5990.39    64.701805    34.737465
5991.60    87.070824    25.055893
5992.82    64.999619    33.523888
5994.03    78.059891    34.170433
5995.25    116.796577    23.556137
5996.46    89.728073    26.806410
5997.67    56.674690    35.545822
5998.89    62.235973    33.965363
6000.10    94.714172    20.630466
6001.32    99.949028    20.277651
6002.53    94.918556    27.124435
6003.75    97.256706    30.790426
6004.96    86.337555    33.300739
6006.18    85.872406    24.482204
6007.39    92.841789    13.797813
6008.60    80.362122    21.182678
6009.82    68.207558    29.973457
6011.03    67.987694    30.302950
6012.25    70.496162    26.200207
6013.46    56.575405    28.416565
6014.68    68.123894    29.189449
6015.89    99.789474    23.269608
6017.11    76.135757    19.258310
6018.32    62.206707    19.838524
6019.54    77.061272    19.625557
6020.75    74.499977    16.219172
6021.96    58.278633    28.786343
6023.18    50.071522    39.066334
6024.39    58.640663    28.013512
6025.61    61.390347    21.382109
6026.82    57.001873    20.971142
6028.04    58.751377    21.945656
6029.25    74.892670    25.503866
6030.47    72.505783    27.872650
6031.68    60.904480    25.310413
6032.90    74.876305    19.513313
6034.11    92.842758    21.334087
6035.32    95.637413    21.876289
6036.54    85.096626    15.298754
6037.75    81.664291    18.993181
6038.97    71.092346    24.556717
6040.18    59.022690    26.028706
6041.40    74.747528    29.233347
6042.61    85.666191    25.650057
6043.83    83.803459    22.408875
6045.04    86.433960    28.610056
6046.26    93.043724    24.242373
6047.47    91.909523    20.624741
6048.68    80.897179    28.365576
6049.90    75.722664    30.977634
6051.11    68.667267    34.455479
6052.33    67.665337    34.507862
6053.54    89.558083    19.527794
6054.76    97.323189    17.943773
6055.97    84.812187    27.512383
6057.19    71.146523    29.252993
6058.40    64.555908    27.596144
6059.62    69.032288    24.881004
6060.83    76.910507    22.991213
6062.04    74.100319    24.623451
6063.26    81.884644    24.071026
6064.47    94.376945    23.235012
6065.69    87.607330    27.400776
6066.90    83.279579    26.230633
6068.12    83.863968    22.353819
6069.33    81.412666    24.161497
6070.55    79.975784    31.140823
6071.76    85.362206    31.503248
6072.98    85.804184    24.934732
6074.19    66.716232    24.879967
6075.40    77.511246    27.244787
6076.62    100.417168    25.024132
6077.83    84.994629    20.301657
6079.05    57.312260    29.393803
6080.26    61.570572    34.000298
6081.48    88.630753    23.592020
6082.69    70.673218    20.705521
6083.91    67.040733    17.255970
6085.12    89.130394    13.045412
6086.34    84.562981    18.704922
6087.55    72.370285    23.878519
6088.76    74.778954    23.376135
6089.98    86.215500    20.949091
6091.19    73.162071    23.933176
6092.41    70.907372    26.306099
6093.62    92.229561    26.018656
6094.84    96.495270    30.224316
6096.05    77.005051    37.543606
6097.27    63.063114    43.887638
6098.48    77.025475    44.932838
6099.69    81.001434    37.737946
6100.91    70.758377    27.703838
6102.12    59.519875    23.852514
6103.34    55.320740    29.835182
6104.55    65.318459    27.727854
6105.77    85.314331    18.317162
6106.98    99.111275    18.509542
6108.20    89.564377    24.180180
6109.41    73.995636    27.114609
6110.63    71.140778    25.170771
6111.84    69.586082    24.690332
6113.05    75.034386    19.438076
6114.27    84.231880    12.943661
6115.48    83.137589    18.070992
6116.70    81.584579    24.740789
6117.91    83.565331    23.936737
6119.13    84.449631    17.578989
6120.34    79.675003    18.527061
6121.56    76.680183    21.900524
6122.77    76.014290    22.001095
6123.99    68.421204    22.282986
6125.20    66.146545    24.443119
6126.41    73.818748    21.557880
6127.63    85.395180    11.140977
6128.84    94.354561    13.051558
6130.06    90.550476    21.685411
6131.27    77.448921    24.991739
6132.49    74.954430    22.616882
6133.70    76.749687    16.427441
6134.92    77.018524    17.131014
6136.13    80.191338    29.514824
6137.35    94.179535    26.224346
6138.56    98.071686    15.688984
6139.77    81.416595    18.072456
6140.99    72.932724    33.804810
6142.20    80.230057    54.285553
6143.42    73.021416    72.609177
6144.63    34.728886    78.045105
6145.85    60.638039    43.766113
6147.06    87.327217    17.445515
6148.28    56.935333    31.963507
6149.49    80.063927    26.483507
6150.71    86.581505    21.702023
6151.92    60.547638    29.249519
6153.13    79.177200    26.512230
6154.35    92.140915    24.217993
6155.56    89.681519    26.978121
6156.78    86.656021    29.207867
6157.99    70.319946    25.232288
6159.21    79.108131    25.613060
6160.42    104.376938    32.266697
6161.64    88.548355    35.039738
6162.85    66.632088    38.580250
6164.07    73.242607    35.903744
6165.28    96.539673    26.202126
6166.49    80.019165    32.907204
6167.71    76.160324    32.832588
6168.92    97.266624    22.944893
6170.14    84.373032    30.679602
6171.35    74.112511    30.815958
6172.57    78.188721    24.196489
6173.78    80.310677    25.640676
6175.00    76.806122    25.758284
6176.21    83.104576    19.247581
6177.43    92.971756    11.872979
6178.64    80.332893    14.447396
6179.85    66.401794    21.844158
6181.07    71.628334    24.857126
6182.28    89.726242    22.760902
6183.50    86.618820    27.769085
6184.71    82.363800    26.137768
6185.93    90.387520    16.736580
6187.14    94.268272    18.038866
6188.36    91.778343    23.371181
6189.57    88.560768    24.696938
6190.79    88.883553    21.398136
6192.00    88.058937    20.289602
6193.21    77.652313    21.986210
6194.43    71.515007    22.936205
6195.64    86.875473    20.578167
6196.86    76.404259    20.156328
6198.07    66.874763    21.136421
6199.29    84.472908    22.523663
6200.50    72.160118    28.343918
6201.72    67.680443    28.840876
6202.93    81.657166    24.885757
6204.14    75.959991    26.203741
6205.36    63.795776    22.363214
6206.57    66.514313    16.975010
6207.79    83.930077    18.576992
6209.00    86.731171    24.688343
6210.22    67.594284    24.627651
6211.43    54.475788    22.235779
6212.65    72.251656    28.401152
6213.86    75.657837    32.104446
6215.08    66.022453    31.683319
6216.29    62.967445    29.168192
6217.50    65.211739    24.308794
6218.72    62.024227    26.738728
6219.93    59.569149    29.530077
6221.15    68.246170    22.179810
6222.36    74.042671    20.615555
6223.58    80.138908    22.397064
6224.79    80.799301    23.034504
6226.01    64.298431    25.760706
6227.22    78.683418    24.119013
6228.44    95.503029    18.746958
6229.65    72.380035    15.236327
6230.86    61.217159    15.521879
6232.08    74.562538    21.854948
6233.29    80.863953    34.184448
6234.51    54.706551    45.586227
6235.72    62.345329    39.415768
6236.94    87.187439    27.246489
6238.15    85.838211    24.944355
6239.37    73.490242    26.361786
6240.58    80.747879    27.245300
6241.80    92.963547    25.496515
6243.01    80.997986    22.826763
6244.22    80.557922    26.289721
6245.44    78.836067    27.046711
6246.65    65.909462    24.015953
6247.87    64.840546    30.004925
6249.08    67.065460    31.790390
6250.30    68.567406    24.825714
6251.51    70.179855    18.132004
6252.73    67.488342    21.532776
6253.94    74.901871    21.335583
6255.16    87.644295    19.537230
6256.37    82.898964    30.594866
6257.58    66.436081    33.766766
6258.80    54.483738    31.901287
6260.01    56.731686    31.160166
6261.23    66.941032    23.794464
6262.44    71.324547    27.823494
6263.66    77.779640    41.597240
6264.87    92.339523    51.345402
6266.09    83.891769    61.524658
6267.30    65.338196    62.103855
6268.52    65.216873    46.222713
6269.73    89.155640    23.942984
6270.94    92.656067    18.933035
6272.16    76.450218    20.306643
6273.37    62.510078    16.912905
6274.59    56.533394    23.891264
6275.80    67.781097    24.162596
6277.02    74.917572    18.446196
6278.23    61.711666    19.738472
6279.45    69.531677    19.399151
6280.66    72.888756    16.792549
6281.88    59.015591    17.346725
6283.09    56.083244    23.629040
6284.30    66.252869    25.539160
6285.52    72.013474    23.160177
6286.73    64.271698    23.859617
6287.95    57.445354    30.019794
6289.16    58.830891    24.603912
6290.38    55.548965    19.917377
6291.59    46.831772    28.852047
6292.81    69.810234    20.946419
6294.02    77.997215    23.135736
6295.24    60.430161    53.836948
6296.45    57.090996    111.167168
6297.66    55.685013    218.667877
6298.88    65.622849    311.249023
6300.09    91.536781    313.997223
6301.31    110.298973    227.671875
6302.52    102.326820    139.843109
6303.74    83.746063    86.521759
6304.95    74.666779    58.294296
6306.17    65.417709    48.399345
6307.38    63.496250    41.686352
6308.59    70.668900    27.517321
6309.81    74.267151    12.476244
6311.02    60.638435    19.709154
6312.24    65.292702    21.515478
6313.45    83.439529    12.896543
6314.67    71.676048    19.240675
6315.88    64.395462    15.391642
6317.10    62.482285    13.860518
6318.31    59.024693    26.188608
6319.53    63.448776    32.616699
6320.74    56.781433    31.721619
6321.95    63.478905    23.924395
6323.17    87.836060    15.159401
6324.38    66.633568    18.693256
6325.60    50.048492    21.926922
6326.81    53.244499    25.797813
6328.03    54.588326    35.466362
6329.24    72.028755    32.424706
6330.46    78.675957    27.828171
6331.67    73.015434    33.439659
6332.89    77.441055    45.084473
6334.10    67.761581    50.377682
6335.31    65.307030    51.458340
6336.53    71.646851    48.357426
6337.74    60.023308    34.121281
6338.96    73.110443    16.650188
6340.17    76.111954    16.106247
6341.39    54.922649    28.048475
6342.60    67.847450    21.001347
6343.82    68.827385    16.945435
6345.03    66.228859    17.521439
6346.25    76.169052    15.883783
6347.46    58.956528    22.289145
6348.67    58.627766    22.559126
6349.89    69.502296    18.670006
6351.10    61.584988    19.984003
6352.32    62.935074    18.582600
6353.53    72.437721    22.149160
6354.75    73.710220    25.750217
6355.96    62.903336    19.076939
6357.18    62.072006    14.881096
6358.39    52.362560    22.903524
6359.61    48.275402    38.318954
6360.82    71.156898    59.614475
6362.03    54.735130    109.411423
6363.25    50.211990    120.986519
6364.46    76.191551    85.355247
6365.68    76.163025    68.845993
6366.89    59.650314    52.359604
6368.11    58.044716    33.159142
6369.32    70.546219    20.224035
6370.54    69.688316    14.425787
6371.75    75.380424     8.292282
6372.97    67.995590    11.305498
6374.18    47.453114    18.960644
6375.39    53.815975    11.223221
6376.61    66.559807    14.083094
6377.82    69.877281    19.525869
6379.04    66.953949    24.604713
6380.25    72.970551    49.163685
6381.47    97.386276    53.736156
6382.68    83.486794    64.776657
6383.90    36.734684    86.945282
6385.11    57.359192    56.916008
6386.33    62.184280    30.986717
6387.54    51.084148    26.073788
6388.75    59.035885    22.973625
6389.97    61.429756    16.427788
6391.18    69.655434     9.858976
6392.40    66.215942     8.272299
6393.61    48.010864    10.000681
6394.83    57.400688     7.484502
6396.04    74.650414     8.257639
6397.26    73.831543    10.199548
6398.47    70.940979    16.944841
6399.69    103.177048    51.023266
6400.90    87.197433    115.475372
6402.11    41.876213    166.162003
6403.33    22.991741    165.986572
6404.54    15.994070    128.587570
6405.76    35.173500    62.415962
6406.97    54.049416    17.663269
6408.19    53.016624    19.062473
6409.40    60.972626    21.040823
6410.62    67.529701    21.275759
6411.83    67.625824    17.907215
6413.04    68.092278    11.944207
6414.26    72.913567    13.527257
6415.47    68.512802    12.902219
6416.69    63.336369    12.787060
6417.90    61.676304    19.405098
6419.12    53.729374    25.288921
6420.33    69.131577    13.405384
6421.55    75.119965     6.440617
6422.76    54.846233    15.455120
6423.98    52.221981    15.146794
6425.19    66.636917    11.143760
6426.40    62.327812    15.328483
6427.62    45.833572    20.785130
6428.83    61.124710    12.365129
6430.05    71.366356    11.652016
6431.26    72.362999    12.009441
6432.48    70.217575     7.576777
6433.69    62.885426     8.919033
6434.91    60.910275    16.723602
6436.12    57.073845    17.828259
6437.34    53.088657    13.811517
6438.55    58.998608    17.318537
6439.76    66.423256    20.873177
6440.98    78.285515    16.009602
6442.19    81.324677     9.182548
6443.41    66.829254    11.528314
6444.62    64.482796    17.373564
6445.84    63.192616    15.658697
6447.05    57.483696    13.523959
6448.27    57.831142    17.016640
6449.48    67.457497    12.487143
6450.70    60.640976    16.113039
6451.91    50.641041    21.600883
6453.12    53.015785    18.912634
6454.34    52.733757    17.814194
6455.55    68.053810    12.680336
6456.77    69.888367    10.157284
6457.98    55.710506    15.806715
6459.20    64.805489    21.735275
6460.41    61.741459    19.060070
6461.63    61.324619    13.999309
6462.84    60.638165    16.209747
6464.06    44.050491    24.427507
6465.27    62.193100    24.300707
6466.48    78.525620    22.414413
6467.70    68.836662    21.424704
6468.91    56.985046    19.022705
6470.13    66.881699    21.230009
6471.34    63.281807    26.783564
6472.56    51.498474    28.725075
6473.77    53.238590    21.427189
6474.99    57.654171     9.903526
6476.20    57.021454    13.822329
6477.42    61.561172    20.511812
6478.63    62.393627    17.243624
6479.84    50.470066    11.063839
6481.06    78.353371     4.976917
6482.27    73.620071     5.428168
6483.49    51.161705    11.532635
6484.70    72.385017    15.019953
6485.92    64.269928    11.989452
6487.13    57.240429    11.172483
6488.35    65.169823    11.867853
6489.56    73.396942    11.021275
6490.78    75.830368    12.676787
6491.99    61.876350    13.015109
6493.20    51.811924    13.556967
6494.42    54.441769    15.200074
6495.63    55.019470    15.887185
6496.85    53.473347    18.235531
6498.06    41.348831    27.023720
6499.28    36.793419    33.565647
6500.49    54.005333    27.997072
6501.71    63.333855    18.698288
6502.92    58.697979    17.561977
6504.14    67.698570    35.157516
6505.35    85.667778    69.968094
6506.56    71.958763    102.890533
6507.78    47.553471    107.061958
6508.99    40.169243    75.769684
6510.21    46.454163    36.465668
6511.42    51.819862    20.113359
6512.64    61.848000    20.382589
6513.85    59.614967    20.220203
6515.07    61.513515    18.937155
6516.28    71.190842    20.111898
6517.49    64.747520    18.771296
6518.71    65.310165    13.016463
6519.92    60.146667    17.797626
6521.14    59.855991    21.981163
6522.35    72.996948    13.031301
6523.57    62.549355    16.511730
6524.78    73.788307    18.240921
6526.00    70.900818    16.566811
6527.21    55.348656    15.719148
6528.43    81.671120    13.928070
6529.64    67.466492    17.380993
6530.85    59.789623    24.118567
6532.07    67.243309    31.260494
6533.28    64.157051    39.366199
6534.50    75.761139    46.411728
6535.71    77.478706    37.178040
6536.93    68.082657    22.886839
6538.14    62.885536    16.143610
6539.36    63.316154    17.541954
6540.57    52.085506    26.918196
6541.79    44.581863    23.558817
6543.00    55.912128    19.408705
6544.21    65.092773    24.181295
6545.43    46.439152    20.714842
6546.64    52.387215    16.980192
6547.86    59.457756    11.194122
6549.07    56.778564    12.265236
6550.29    60.183319    21.078909
6551.50    63.798229    16.558243
6552.72    62.535397    19.977922
6553.93    59.928413    23.038712
6555.15    58.766285    20.969604
6556.36    58.939026    22.036213
6557.57    62.624554    17.704315
6558.79    66.276131    13.541672
6560.00    61.354103    18.977510
6561.22    59.466522    27.748816
6562.43    75.833252    25.483046
6563.65    80.631416    21.373358
6564.86    78.631630    26.745441
6566.08    70.559464    26.299311
6567.29    59.106735    16.450169
6568.51    55.682896    20.778069
6569.72    50.571507    27.878870
6570.93    68.853920    19.789305
6572.15    65.184181    13.483738
6573.36    32.658878    18.956970
6574.58    58.108665    13.200298
6575.79    60.042797    19.395390
6577.01    50.614799    23.410217
6578.22    59.761894    18.320374
6579.44    74.447136    13.741898
6580.65    75.489243    10.267893
6581.87    80.502190    10.773461
6583.08    61.413906    13.618279
6584.29    42.512634    15.099474
6585.51    63.070522    12.813111
6586.72    75.954102     9.523618
6587.94    53.366966    15.922237
6589.15    45.549583    15.627319
6590.37    50.329441    10.884286
6591.58    41.153183    14.032341
6592.80    56.395203    12.055507
6594.01    50.368866    14.823868
6595.23    50.309776    14.849320
6596.44    73.300529    15.563439
6597.65    93.663712    27.663841
6598.87    97.326691    43.353745
6600.08    77.452385    60.763203
6601.30    62.317371    56.221317
6602.51    58.746971    32.901527
6603.73    61.955055    18.637154
6604.94    79.670151    19.004913
6606.16    64.135612    14.901447
6607.37    52.417015     9.417466
6608.58    61.243320     9.859221
6609.80    71.033257    14.442074
6611.01    75.011978    17.109741
6612.23    50.831570    13.827835
6613.44    56.220673     9.996679
6614.66    70.150475     8.856316
6615.87    53.876266    13.181139
6617.09    49.996872    21.056791
6618.30    65.029594    12.792781
6619.52    58.389786    10.380043
6620.73    42.777958    10.924908
6621.94    56.397564     8.240454
6623.16    83.737396    11.977433
6624.37    66.500381     8.150887
6625.59    55.492279     6.978842
6626.80    66.351570     8.426832
6628.02    65.485062     7.691494
6629.23    48.961910     9.108489
6630.45    62.270241    15.847288
6631.66    65.365219    10.238764
6632.88    69.102989     7.160679
6634.09    62.382271    10.689646
6635.30    41.661613    11.102674
6636.52    52.556076    13.593284
6637.73    44.600292    15.621512
6638.95    65.771805    11.623812
6640.16    69.505157     9.062895
6641.38    42.075554    11.122969
6642.59    59.546795    10.933311
6643.81    53.970169    13.922160
6645.02    49.077267    11.148846
6646.24    46.632866    11.858472
6647.45    44.908424    14.776152
6648.66    54.739418    12.016551
6649.88    62.238853    15.576934
6651.09    53.987541    15.442964
6652.31    48.094055    15.589014
6653.52    59.798538    15.235855
6654.74    70.961563    12.828684
6655.95    58.600842    13.926632
6657.17    48.078197    15.051053
6658.38    41.047264    14.179028
6659.60    45.233162    14.696190
6660.81    51.086689    14.175648
6662.02    46.822731    10.912994
6663.24    50.104832    13.400391
6664.45    55.068272    17.949821
6665.67    42.558823    19.080540
6666.88    49.319733    11.271391
6668.10    66.487740     5.264546
6669.31    46.816235    12.059101
6670.53    43.235001    12.712368
6671.74    29.605625    16.549715
6672.96    31.867712    13.476803
6674.17    49.722363    10.928091
6675.38    63.967827    20.963232
6676.60    78.882660    41.453308
6677.81    70.883087    83.641693
6679.03    70.215187    91.810135
6680.24    59.914619    63.209190
6681.46    46.759346    32.569958
6682.67    60.679035    16.534464
6683.89    74.614929     9.983932
6685.10    52.676910    13.622102
6686.32    58.648735    10.432705
6687.53    61.957832     8.606635
6688.74    50.321560    11.049444
6689.96    58.671684     8.854210
6691.17    59.286198     9.710216
6692.39    56.178047    12.244026
6693.60    52.788799     8.615467
6694.82    58.954575     5.253010
6696.03    70.548286     6.310374
6697.25    70.365021     7.084185
6698.46    59.902061     8.720817
6699.68    56.716511    11.474967
6700.89    56.653038    11.851412
6702.10    45.679718    10.089747
6703.32    38.915913    10.762905
6704.53    48.461193    14.216645
6705.75    48.549873    13.387708
6706.96    57.975285     9.085726
6708.18    52.128181    12.430424
6709.39    43.915932    12.052978
6710.61    43.100807     9.634787
6711.82    38.655560    14.190727
6713.03    39.698280    14.610981
6714.25    48.280735    25.853334
6715.46    69.892670    35.732811
6716.68    69.415970    57.168697
6717.89    57.706455    55.622528
6719.11    59.433506    21.808207
6720.32    52.060505    20.052591
6721.54    56.187904    10.231673
6722.75    55.585442     5.884752
6723.97    56.960075    13.136442
6725.18    53.129921    11.716253
6726.39    46.428947     2.082775
6727.61    55.198009     6.243725
6728.82    55.049213    11.632566
6730.04    57.085224    11.999476
6731.25    51.568096    13.604102
6732.47    30.335648    18.426012
6733.68    30.074486    17.188047
6734.90    58.506615     9.575914
6736.11    55.906532    10.005716
6737.33    65.721001     8.049377
6738.54    53.290337    10.435287
6739.75    49.622540     8.524628
6740.97    48.070702     6.812470
6742.18    34.930054    11.624829
6743.40    51.574085    10.933820
6744.61    64.323296     8.326975
6745.83    51.572025     8.130639
6747.04    40.934582    16.504879
6748.26    48.766640    12.902348
6749.47    52.266758     7.286883
6750.69    45.287521    16.326723
6751.90    52.082050    10.217768
6753.11    38.751556     9.236013
6754.33    34.058643    13.682806
6755.54    35.799839    15.140520
6756.76    47.824043    10.005978
6757.97    53.323284     5.827246
6759.19    38.986534     8.149138
6760.40    50.718037     8.827232
6761.62    42.658524    12.531805
6762.83    53.945305    11.193718
6764.05    65.466248     6.061548
6765.26    55.075542     6.134638
6766.47    45.358753     9.180855
6767.69    52.874203     7.982887
6768.90    58.777191     9.757898
6770.12    41.189873    11.310797
6771.33    42.913994     8.116816
6772.55    61.143211     3.855353
6773.76    58.598160     3.412268
6774.98    39.841549     7.145360
6776.19    40.746632     8.733089
6777.41    50.930046     3.885909
6778.62    41.836372    11.387983
6779.83    37.636494    11.727999
6781.05    48.909649     9.726176
6782.26    58.032688     9.179467
6783.48    54.230095     8.527371
6784.69    45.054878    12.206641
6785.91    40.615944    11.200631
6787.12    50.397789     8.212333
6788.34    36.599735     8.936913
6789.55    42.074097     7.206600
6790.77    48.952724     6.855161
6791.98    43.530716     9.151070
6793.19    48.691540    10.744763
6794.41    30.146856    16.973856
6795.62    38.670864    12.255593
6796.84    44.377216     7.353138
6798.05    37.845741     8.107087
6799.27    31.902153    12.248041
6800.48    40.263161    11.510290
6801.70    51.240055     8.200258
6802.91    43.715725    10.937831
6804.13    42.220299     6.959805
6805.34    38.671947    12.253193
6806.55    45.242237     9.201389
6807.77    46.859322     8.026852
6808.98    46.232838    12.419290
6810.20    44.479622    10.874571
6811.41    40.368664     5.289825
6812.63    58.855453     3.937736
6813.84    52.418716    10.452838
6815.06    41.939510     8.940744
6816.27    46.679615     9.017037
6817.48    32.436573    13.104132
6818.70    26.953051    13.311502
6819.91    43.158241    10.570279
6821.13    30.373850    11.200755
6822.34    32.123569    14.751184
6823.56    24.193161    18.306808
6824.77    34.773834    12.502253
6825.99    47.626186     8.768528
6827.20    38.509544    19.133451
6828.42    37.037289    28.130642
6829.63    45.480473    27.438890
6830.84    29.499241    29.823915
6832.06    39.887794    23.340723
6833.27    52.221886    20.171572
6834.49    41.995953    11.227590
6835.70    38.326763    10.181618
6836.92    45.528561    11.472271
6838.13    53.106880    10.355939
6839.35    49.373405    11.942962
6840.56    36.458126     9.849639
6841.78    50.154724     9.931317
6842.99    27.540001    11.729750
6844.20    27.083311    11.916645
6845.42    34.648659     7.673009
6846.63    46.405167     6.252551
6847.85    50.815277     8.987202
6849.06    40.898922     8.203697
6850.28    40.365070     4.813916
6851.49    33.013706     6.952404
6852.71    36.336128    11.046737
6853.92    27.641182     7.018817
6855.14    36.223736     7.188010
6856.35    38.420158    10.729229
6857.56    29.074699     7.302557
6858.78    32.210011     6.727946
6859.99    36.847507    13.192441
6861.21    35.266506    12.269095
6862.42    39.096027    24.895229
6863.64    15.098602    33.125748
6864.85    35.865334    26.971857
6866.07    47.695736    15.886831
6867.28    37.556931     9.443926
6868.50    31.172413     7.401030
6869.71    28.701128     7.144700
6870.92    35.948589     6.659889
6872.14    43.070690     4.000708
6873.35    54.175644     6.016412
6874.57    53.514782     3.722183
6875.78    40.832821     9.261009
6877.00    36.979790     8.612625
6878.21    55.706615     6.576312
6879.43    51.796829    11.844683
6880.64    26.803495    12.306584
6881.86    37.175812     7.582528
6883.07    26.088482     6.983663
6884.28    25.713923    10.310527
6885.50    25.658758    14.481639
6886.71    28.843262     8.117004
6887.93    21.019972     8.053086
6889.14    26.798994    11.447255
6890.36    40.302502     9.325212
6891.57    28.271185     7.280606
6892.79    22.882349     4.956074
6894.00    33.999805     5.999851
6895.22    23.030281     5.774686
6896.43    24.633331    10.415350
6897.64    26.809803    15.084739
6898.86    34.361038     7.551773
6900.07    39.500568     5.962601
6901.29    25.252426    12.443210
6902.50    20.022530     9.646389
6903.72    38.287781     5.829846
6904.93    32.728848     7.028493
6906.15    27.450052     7.737295
6907.36    23.268892    11.385567
6908.58    33.462173     4.859550
6909.79    37.729710     9.948437
6911.00    26.876638    13.453773
6912.22    25.489763     8.402790
6913.43    30.704552    10.392545
6914.65    28.930269    10.992328
6915.86    33.575035     6.198781
6917.08    25.883801    12.948141
6918.29    42.258602     8.503908
6919.51    41.789711     9.665439
6920.72    38.476749     8.209304
6921.93    31.092583    15.911012
6923.15    37.031734    17.780174
6924.36    45.980652    10.242254
6925.58    34.680061    13.980660
6926.79    27.270998    26.867725
6928.01    32.961773    40.200653
6929.22    49.182800    36.998734
6930.44    29.477259    40.133224
6931.65    33.902382    21.847313
6932.87    45.878960    10.614397
6934.08    33.737381    11.868736
6935.29    29.082104     8.117512
6936.51    39.849751     7.847263
6937.72    35.049908    15.264440
6938.94    30.179644    14.530919
6940.15    44.279613     9.732256
6941.37    39.470181     5.019890
6942.58    36.384254     7.791249
6943.80    33.602066     5.560354
6945.01    38.528347     6.863398
6946.23    32.711323     7.714939
6947.44    26.746311    10.630915
6948.65    36.253429    14.133371
6949.87    40.286709    11.378281
6951.08    31.603441    11.121532
6952.30    30.390196    12.019233
6953.51    39.878464    11.121824
6954.73    32.676701     7.761876
6955.94    28.256260     3.377352
6957.16    38.262856     4.763285
6958.37    29.744286     6.753428
6959.59    24.952492     7.761701
6960.80    31.681938     9.666533
6962.01    30.590746     7.654355
6963.23    30.925009     7.160239
6964.44    26.471354    13.929835
6965.66    39.781597     7.077428
6966.87    38.784958    10.505964
6968.09    34.966770     9.863200
6969.30    36.490238     7.518760
6970.52    32.202648    10.575893
6971.73    41.147148     8.087118
6972.95    31.198879     8.102638
6974.16    21.166801    11.418973
6975.37    42.046196     6.369075
6976.59    26.282681     8.517576
6977.80    37.278400    10.976006
6979.02    39.114948     8.824228
6980.23    21.720345    13.959986
6981.45    33.049488     7.285146
6982.66    28.466097     5.261677
6983.88    28.275318     8.498314
6985.09    40.512016     6.062986
6986.31    36.398151     6.742590
6987.52    27.788700    11.425911
6988.73    35.952488     8.219681
6989.95    44.158154     6.058196
6991.16    23.233835     8.930332
6992.38    32.997826     9.320450
6993.59    38.825680     5.677937
6994.81    27.263638     4.692849
6996.02    33.549244     5.744041
6997.24    30.845425     9.842300
6998.45    23.113991    11.841359
6999.67    38.376488     6.796800
7000.88    38.904434     4.496535
7002.09    19.265013     8.124105
7003.31    30.466059     5.930956
7004.52    32.362724     7.659716
7005.74    26.674900    13.008575
7006.95    35.687229     8.099878
7008.17    36.512371     9.216776
7009.38    26.822437    11.409845
7010.60    28.145741     7.758425
7011.81    39.580017     6.052555
7013.03    37.644871     9.251643
7014.24    25.924967    10.706395
7015.45    26.882729     7.820295
7016.67    26.048023     8.001656
7017.88    38.142887     6.393927
7019.10    37.895287     2.085282
7020.31    26.618912     6.006281
7021.53    22.718306    10.437082
7022.74    26.595764     7.290535
7023.96    27.754597     7.811029
7025.17    27.400993    11.423342
7026.38    31.375004     9.527506
7027.60    27.537022    15.363721
7028.81    19.987511    28.371939
7030.03    44.677086    31.588707
7031.24    39.607826    56.972900
7032.46    41.678471    53.833881
7033.67    14.480453    38.987011
7034.89    18.840673    22.936737
7036.10    33.457600    13.275634
7037.32    33.291481     8.122856
7038.53    25.818447     7.630906
7039.74    13.594584    11.684993
7040.96    31.693850     6.618535
7042.17    41.011997     8.089190
7043.39    32.103310     9.021006
7044.60    17.746582     8.152424
7045.82    31.880341     7.401057
7047.03    29.014856     5.378377
7048.25    22.106918     6.118902
7049.46    22.655781    10.129478
7050.68    22.568762     9.818605
7051.89    21.867599     6.559867
7053.10    17.735245     7.046109
7054.32    20.349688     5.787707
7055.53    22.988251     3.999662
7056.75    23.669571     5.756665
7057.96    29.796417     6.398973
7059.18    37.807629     3.959050
7060.39    22.333771     7.022853
7061.61    16.770247     9.069119
7062.82    31.288656     4.531054
7064.04    35.860413     1.970278
7065.25    28.839504     4.749673
