#Wavelength     Flux   Variance  Subtracted Sky
#[Angstrom]   [Counts]     [Counts]    [Counts]
3600.21    18.735800    121.823100    10.479080
3604.52     4.551512    109.947500    11.750270
3608.83     5.967216    112.756600    12.353100
3613.15    10.926760    119.376100    14.967460
3617.46    10.579440    119.816700    12.951020
3621.77     0.380915    121.103100    15.174600
3626.08     7.286817    119.959400    16.395290
3630.39    24.435360    137.714800    17.922900
3634.70    14.080140    152.783300    20.270910
3639.01    -6.120582    133.399200    20.793980
3643.32    -6.634380    124.659900    18.757400
3647.63    -1.399839    125.823400    18.662390
3651.94    -0.145159    118.834600    16.180070
3656.25    -7.859915    124.915900    18.777920
3660.56     3.030235    126.033500    17.865360
3664.87     7.002820    134.360300    18.073230
3669.18    24.749940    139.348800    15.545900
3673.49    25.495760    131.846300    17.950290
3677.80    15.734700    128.761500    15.436930
3682.11    21.413860    138.040900    17.682590
3686.42     5.853036    128.013700    17.160670
3690.74    -9.839811    123.979400    15.727730
3695.05     6.998408    133.700000    17.640490
3699.36    14.570920    151.447600    22.798460
3703.67    11.554390    127.687100    20.440320
3707.98     1.968513    143.374300    22.447530
3712.29    11.441870    146.411000    20.694330
3716.60    12.852680    149.138900    21.762130
3720.91    30.837870    153.030100    17.418950
3725.22    10.812190    143.393500    18.985170
3729.53    -11.313620    136.365000    23.808960
3733.84     0.357066    142.598900    24.668290
3738.15    -1.263578    150.458800    28.794490
3742.46    10.291290    155.194600    23.321260
3746.77    11.640970    152.235600    26.418740
3751.08    15.411790    158.517200    22.409600
3755.39     3.121037    147.133100    22.291110
3759.70    12.594860    150.125600    22.718770
3764.01    27.525040    151.444800    16.281890
3768.33    16.163680    138.005100    15.898910
3772.64    28.099940    144.530300    19.272100
3776.95    29.384800    154.994000    24.303730
3781.26    14.657070    149.646200    20.739230
3785.57    -10.389590    140.132000    23.404170
3789.88     9.995316    151.200700    19.681170
3794.19    13.766730    154.099700    23.874440
3798.50    16.433320    154.599700    20.666690
3802.81    17.922690    157.560100    20.901180
3807.12    29.444490    158.608300    22.422210
3811.43    32.905090    157.045200    18.826730
3815.74    28.041580    166.330900    21.561260
3820.05    26.880420    165.043000    24.211710
3824.36    27.723030    166.453100    25.168040
3828.67    28.848730    172.738400    27.444270
3832.98    34.432530    185.441000    30.049600
3837.29    23.006100    182.042400    26.745420
3841.60     0.431769    154.503700    27.682080
3845.92    27.802610    165.491300    23.686630
3850.23    45.279790    179.152800    23.740940
3854.54    29.939370    171.838500    21.180900
3858.85    20.965680    165.840000    20.931540
3863.16    12.890190    148.721300    20.954950
3867.47    25.443870    163.396900    22.372600
3871.78    19.308730    154.564000    21.975200
3876.09    24.719120    166.933900    20.969600
3880.40    47.827200    174.477000    19.717540
3884.71    41.646970    168.900000    20.547410
3889.02    32.838870    168.366700    18.228350
3893.33     3.611885    150.861400    20.309700
3897.64    52.359140    184.752600    22.198540
3901.95    26.272190    168.754000    26.129680
3906.26    38.250770    202.486300    30.883890
3910.57    37.226010    198.783200    31.298530
3914.88    25.988660    190.722700    30.552420
3919.19    50.597270    200.082900    25.989440
3923.50    44.963700    191.039600    24.732700
3927.82    25.591140    169.799200    23.737310
3932.13    39.771990    176.746500    21.554790
3936.44    49.322790    188.859900    23.367960
3940.75    63.821360    206.194800    25.623570
3945.06    46.638920    203.975400    30.606360
3949.37    41.231230    206.332800    31.927440
3953.68    55.830610    199.942800    29.132250
3957.99    31.690850    179.934400    25.331060
3962.30    32.644570    182.480100    24.936060
3966.61    52.809350    189.287900    21.575800
3970.92    49.470560    187.150900    21.543740
3975.23    28.137630    183.959200    27.521300
3979.54    39.933190    199.682300    28.689810
3983.85    40.688850    203.587000    31.813340
3988.16    61.066950    220.085100    31.930290
3992.47    61.424400    211.645800    29.389770
3996.78    28.405010    193.244600    30.613850
4001.09    43.926500    214.935400    31.352600
4005.41    64.253650    232.913000    33.771020
4009.72    26.467080    213.423600    36.947900
4014.03    35.114390    210.656100    35.412370
4018.34    49.999860    217.902800    34.604530
4022.65    48.957300    222.797100    34.273120
4026.96    38.765030    206.953700    33.792430
4031.27    42.081380    202.038200    34.838810
4035.58    60.474410    221.328400    34.322950
4039.89    43.336950    220.948200    36.791400
4044.20    46.233620    226.404500    37.076950
4048.51    40.894500    217.810400    38.862110
4052.82    75.700910    238.166600    36.191700
4057.13    50.893470    226.387500    37.967610
4061.44    60.244720    229.086400    41.154900
4065.75    61.131390    239.410100    39.939160
4070.06    61.837750    238.167600    43.048630
4074.37    74.778670    235.904900    40.204640
4078.68    50.384060    226.263200    41.630070
4083.00    64.506390    237.020400    39.972650
4087.31    59.042400    234.393100    38.287660
4091.62    44.351830    218.291900    36.111010
4095.93     2.239545    184.463900    33.236700
4100.24    33.868400    209.014600    34.860290
4104.55    60.438470    214.466100    34.083170
4108.86    67.953450    219.369400    33.573020
4113.17    86.245630    228.554600    32.571500
4117.48    83.793330    226.068500    32.467250
4121.79    93.957370    239.247000    34.188420
4126.10    67.406590    231.567000    38.339240
4130.41    45.260420    212.245800    36.153590
4134.72    22.724980    201.159200    39.678700
4139.03    49.243940    214.717800    37.295230
4143.34    59.244500    230.299400    38.965300
4147.65    90.119240    238.834900    35.851910
4151.96    115.021900    260.202600    38.520440
4156.27    111.070300    269.447500    42.173200
4160.58    79.263340    249.834300    39.490150
4164.90    74.500130    253.762800    45.425580
4169.21    111.673300    277.186500    46.218950
4173.52    102.629300    262.161900    41.723510
4177.83    125.880600    271.106700    41.542760
4182.14    119.558600    266.040500    41.980080
4186.45    131.153200    279.646600    40.303520
4190.76    116.568100    262.211300    38.210230
4195.07    130.057500    261.009300    35.746970
4199.38    130.494900    265.825100    36.822260
4203.69    129.958500    266.874400    40.947140
4208.00    138.422200    277.799500    44.002870
4212.31    142.273000    276.329800    36.855380
4216.62    116.438900    263.859400    37.205460
4220.93    138.022200    267.020100    34.503650
4225.24    143.330100    274.821000    35.229240
4229.55    119.415300    260.113400    33.405440
4233.86    107.538900    252.890100    36.313290
4238.17    112.101600    259.038200    36.538170
4242.49    130.285300    266.850600    36.849330
4246.80    127.704200    266.136600    37.228410
4251.11    119.088100    267.890500    39.780310
4255.42    123.202400    266.684000    37.233840
4259.73    121.961500    273.462600    41.074940
4264.04    103.928200    261.883500    42.655340
4268.35    110.109700    260.498300    41.280990
4272.66    147.717400    278.739200    37.813830
4276.97    118.416800    270.301700    38.734330
4281.28    132.471200    277.281200    37.966450
4285.59    125.679100    266.752900    37.554730
4289.90    154.140600    285.045300    33.653850
4294.21    153.203500    288.770400    39.893390
4298.52    147.998900    268.584600    34.079480
4302.83    134.274800    266.922900    35.050680
4307.14    139.279800    279.860800    39.583620
4311.45    148.455600    287.765200    44.204070
4315.76    123.334400    281.320700    43.531960
4320.08    121.245300    271.808300    41.280190
4324.39    161.562900    294.165800    40.358880
4328.70    190.227200    310.732100    39.789740
4333.01    155.654500    285.639200    39.800200
4337.32    178.505300    303.357800    39.268470
4341.63    155.099800    288.823300    36.222170
4345.94    131.283700    281.173700    42.716630
4350.25    105.658000    265.425700    40.833480
4354.56    150.947900    296.638500    44.167610
4358.87    178.889100    314.496500    44.403830
4363.18    147.382500    286.502700    46.261590
4367.49    169.178300    307.219300    41.746980
4371.80    128.215400    283.203600    42.041190
4376.11    145.182200    294.642800    44.823690
4380.42    146.411200    289.194900    41.288690
4384.73    153.402500    289.708900    40.850230
4389.04    185.480800    318.034300    44.643760
4393.35    161.410200    297.264700    45.381410
4397.67    213.773900    331.526300    42.066700
4401.98    160.276200    307.284400    51.495110
4406.29    174.643400    322.930300    52.978180
4410.60    145.546900    319.994500    55.253330
4414.91    145.846000    312.611300    52.430030
4419.22    160.201000    321.644100    50.272670
4423.53    178.466700    336.443900    53.015120
4427.84    173.382100    329.431300    50.534520
4432.15    187.307700    336.375700    50.825560
4436.46    167.983900    319.001600    49.321170
4440.77    148.558400    306.940500    49.398790
4445.08    150.987500    309.657500    49.284780
4449.39    185.583400    323.012400    46.946380
4453.70    165.421500    305.041700    45.478730
4458.01    168.661000    305.075500    43.487100
4462.32    168.502500    314.894000    42.317520
4466.63    172.147900    318.563300    43.032190
4470.94    142.261400    296.534900    43.291570
4475.25    139.111000    291.100100    43.176630
4479.57    135.815300    294.323200    44.575800
4483.88    150.035300    307.150900    44.790750
4488.19    129.034600    290.354600    48.316220
4492.50    158.758900    310.203200    48.931300
4496.81    186.002600    331.770300    48.823020
4501.12    187.048100    328.521400    49.426460
4505.43    193.751600    339.055900    50.951520
4509.74    202.530300    342.605800    51.062210
4514.05    215.809900    352.565500    49.790950
4518.36    234.184300    359.215400    48.553950
4522.67    190.359900    334.746300    49.184560
4526.98    198.234800    340.480600    53.666400
4531.29    254.772300    378.619000    54.742780
4535.60    209.591400    360.671600    56.603520
4539.91    229.062100    368.565000    54.014790
4544.22    265.263200    395.209100    56.033170
4548.53    267.586200    395.567400    55.469160
4552.84    236.634500    372.691900    53.743350
4557.16    203.296500    351.301900    53.502180
4561.47    208.935900    345.749400    50.675160
4565.78    236.633200    366.964800    47.387150
4570.09    221.603500    365.469000    50.109550
4574.40    227.202500    360.819000    51.918120
4578.71    255.918500    373.226700    53.200280
4583.02    252.682100    376.104200    52.517720
4587.33    231.424800    371.180300    54.455750
4591.64    233.613700    372.080600    55.455000
4595.95    238.880700    367.268500    51.448910
4600.26    244.596700    370.809900    52.332840
4604.57    255.443500    372.511200    49.630290
4608.88    254.467700    385.902100    51.309150
4613.19    252.814100    383.292600    54.216790
4617.50    236.547800    365.958700    52.952130
4621.81    277.409000    398.526600    52.807380
4626.12    272.111800    395.666000    53.656850
4630.43    273.982500    387.675500    52.590430
4634.75    284.710100    388.544500    49.525360
4639.06    273.416200    380.804000    48.808710
4643.37    262.113900    381.419700    49.531030
4647.68    226.775100    357.472700    48.820170
4651.99    256.068800    376.545900    50.484220
4656.30    294.091400    409.110900    52.112930
4660.61    303.995100    418.258400    58.738790
4664.92    300.382200    416.433200    59.294210
4669.23    309.315000    410.374900    54.537220
4673.54    312.833900    417.976800    57.804720
4677.85    299.628800    415.203000    57.606960
4682.16    338.220400    434.870600    56.433740
4686.47    308.523800    416.907000    56.266620
4690.78    327.879500    425.448900    53.229460
4695.09    331.904000    421.792300    51.229620
4699.40    349.324600    439.523300    55.197480
4703.71    337.235800    427.578300    53.474380
4708.02    321.054800    427.023900    55.371490
4712.33    323.008500    417.824200    53.419270
4716.65    277.536200    397.889800    57.903840
4720.96    278.644000    403.663300    60.246200
4725.27    295.591600    408.416300    54.714950
4729.58    321.768800    422.110900    54.278960
4733.89    310.506900    415.975300    56.476550
4738.20    324.527800    421.129700    58.659300
4742.51    326.106100    423.246900    56.559500
4746.82    337.422500    424.781200    54.736630
4751.13    329.170500    426.917800    55.771470
4755.44    354.532400    441.525000    55.537450
4759.75    358.072700    441.769400    55.083530
4764.06    364.090100    440.196100    51.825290
4768.37    307.120800    410.792100    52.476480
4772.68    293.217400    407.489500    54.792560
4776.99    357.533800    443.885600    53.529060
4781.30    368.370300    447.674900    54.395200
4785.61    337.884400    434.161900    56.974150
4789.92    353.288400    443.114400    57.092700
4794.24    375.731800    463.222400    57.210440
4798.55    388.804000    475.306100    59.815290
4802.86    370.416600    459.890400    59.898840
4807.17    365.014000    449.152400    58.750720
4811.48    415.897900    485.322700    58.822010
4815.79    375.419400    468.289700    63.068300
4820.10    414.934300    502.380900    65.827350
4824.41    398.241800    486.677800    67.835790
4828.72    407.459000    494.843700    65.765630
4833.03    399.516500    497.486600    65.046770
4837.34    340.784700    461.512000    63.011470
4841.65    351.580200    454.191700    61.294550
4845.96    366.837300    467.501800    66.306100
4850.27    358.655600    452.168700    57.240090
4854.58    392.858400    474.157000    57.545390
4858.89    356.991000    439.231800    54.257950
4863.20    306.293200    410.770500    54.734580
4867.51    347.206500    446.048600    53.065050
4871.83    344.893900    441.007100    54.712670
4876.14    367.598300    455.339800    56.632870
4880.45    364.584500    462.122500    57.921680
4884.76    382.082500    478.712600    60.048770
4889.07    397.234600    484.985600    58.278500
4893.38    328.375900    437.391800    60.983750
4897.69    320.473000    433.801600    63.156600
4902.00    336.466000    446.465800    62.075930
4906.31    379.643800    477.202800    62.097130
4910.62    407.561700    486.698400    59.475970
4914.93    396.180800    478.090100    62.788770
4919.24    393.950200    472.052900    56.043290
4923.55    362.126200    446.757900    59.757190
4927.86    420.219500    482.439100    55.649250
4932.17    390.725100    479.341900    60.244880
4936.48    400.395800    474.781800    56.933460
4940.79    441.662000    505.338000    64.117880
4945.10    410.153000    480.686500    58.048840
4949.42    412.765500    489.638600    63.376300
4953.73    410.465100    484.690200    62.705880
4958.04    414.406300    486.082700    60.561290
4962.35    402.584500    477.992800    60.516250
4966.66    419.515200    495.944500    63.766900
4970.97    393.691700    484.295200    63.850180
4975.28    405.543500    491.584400    64.315560
4979.59    429.825400    497.170100    62.629610
4983.90    421.856300    493.987500    59.630080
4988.21    432.807800    496.224200    59.965010
4992.52    429.672900    501.692600    61.930730
4996.83    414.390100    487.752000    63.545110
5001.14    442.238200    512.436800    63.006560
5005.45    448.433600    509.091000    66.379030
5009.76    433.095600    498.004900    59.496940
5014.07    423.895300    496.272200    60.306220
5018.38    424.579400    495.344100    60.032110
5022.69    449.503400    508.055300    60.038830
5027.00    453.684100    505.763500    61.283360
5031.32    454.289800    506.811700    61.458910
5035.63    449.329600    507.457500    61.710000
5039.94    419.058600    479.122500    60.606400
5044.25    442.236800    498.127600    57.845810
5048.56    435.022800    497.628600    58.999110
5052.87    440.113700    499.855200    61.621790
5057.18    452.615800    509.397900    61.831740
5061.49    418.012000    487.554900    63.335430
5065.80    398.500800    472.568100    64.298450
5070.11    386.076400    464.926900    60.385310
5074.42    415.739400    485.239800    62.164530
5078.73    431.085100    491.120900    59.064100
5083.04    451.859500    501.110100    59.267780
5087.35    432.102200    493.971600    60.383650
5091.66    407.576100    650.383400    65.584180
5095.97    445.930900    671.675800    62.006030
5100.28    520.613500    733.809200    61.716020
5104.59    502.086900    537.714100    64.154480
5108.91    468.062700    515.549000    62.755660
5113.22    458.523400    511.388200    64.122960
5117.53    423.455900    490.916100    64.387460
5121.84    465.718700    511.786000    61.252040
5126.15    449.555000    510.233800    65.100070
5130.46    450.731800    509.139400    65.500420
5134.77    499.470000    542.761600    66.833370
5139.08    523.375100    556.510900    63.670090
5143.39    464.150400    520.834400    66.137980
5147.70    442.303500    506.056900    71.243970
5152.01    500.928300    537.742500    67.128690
5156.32    492.088800    539.167300    71.976460
5160.63    499.553000    532.818200    66.390770
5164.94    500.851100    531.718100    61.793210
5169.25    489.064100    519.703900    60.161580
5173.56    453.016400    499.600100    63.309550
5177.87    470.504500    509.012000    63.331340
5182.18    517.828700    538.896700    62.155280
5186.50    500.180500    540.379400    65.893000
5190.81    464.888600    533.314000    73.080390
5195.12    457.739200    545.716100    81.674140
5199.43    454.809100    555.226700    91.048500
5203.74    483.608900    546.032200    79.152250
5208.05    504.339600    535.630000    65.746140
5212.36    449.296800    512.081200    68.804890
5216.67    468.485500    526.492900    69.440390
5220.98    469.488400    529.854400    75.627060
5225.29    420.861500    500.849400    71.890910
5229.60    426.332800    496.920700    67.431270
5233.91    484.039900    536.220300    72.886200
5238.22    508.012600    551.971300    72.495930
5242.53    491.485000    538.762600    72.329120
5246.84    472.127800    530.171300    71.953080
5251.15    461.396100    527.854400    75.473110
5255.46    467.113500    534.280900    77.588920
5259.77    464.421100    525.329000    74.698340
5264.08    481.410500    520.842500    66.726970
5268.40    525.716500    542.457100    65.710990
5272.71    536.187900    569.167500    69.995370
5277.02    533.218800    565.841500    72.496640
5281.33    506.420100    542.362700    68.997360
5285.64    499.932900    541.727800    63.904440
5289.95    497.900500    549.665300    71.497190
5294.26    459.721400    528.075400    77.209340
5298.57    484.211000    531.225100    73.326270
5302.88    527.336700    567.321000    74.288010
5307.19    521.792600    566.834500    73.455010
5311.50    506.900300    556.529800    77.652880
5315.81    502.347700    553.358800    75.725360
5320.12    475.966700    544.613600    78.222120
5324.43    475.784400    530.724200    72.465490
5328.74    468.885500    528.320800    74.934360
5333.05    475.641100    544.819300    77.045470
5337.36    503.019700    552.989600    74.482980
5341.67    483.005700    543.202400    73.080760
5345.99    479.056900    539.198700    70.080910
5350.30    474.293900    539.096000    72.501950
5354.61    448.564500    523.044400    76.040920
5358.92    489.242000    539.444100    74.177210
5363.23    520.000200    555.614400    68.435090
5367.54    478.177700    534.642600    68.260400
5371.85    507.965500    546.913600    72.083800
5376.16    495.046000    543.854600    72.485340
5380.47    451.004600    509.735700    69.090530
5384.78    384.446900    477.955800    74.824800
5389.09    399.326700    480.225900    72.099980
5393.40    424.804700    495.564900    71.974960
5397.71    432.718600    497.996600    67.953320
5402.02    431.827300    496.815600    70.282810
5406.33    448.814800    499.562900    68.562380
5410.64    506.202300    549.126300    73.080760
5414.95    506.643100    552.232200    71.749550
5419.26    478.274800    525.584400    72.671490
5423.58    478.995100    532.797400    73.534540
5427.89    478.647100    527.462100    69.147120
5432.20    481.621500    533.605800    71.343170
5436.51    497.115200    542.349300    73.613080
5440.82    537.549400    568.573300    73.843800
5445.13    528.701100    561.764200    72.720590
5449.44    505.127000    543.933300    73.382070
5453.75    537.426500    567.593300    77.532650
5458.06    551.306300    578.932400    79.383980
5462.37    549.218300    573.284000    77.177010
5466.68    532.463600    564.247300    76.834180
5470.99    554.181800    571.215700    74.810010
5475.30    565.728300    580.622600    75.202390
5479.61    556.981300    581.238200    73.499380
5483.92    496.198100    544.552700    77.348970
5488.23    460.575200    523.828200    78.155890
5492.54    527.609600    568.089100    75.238580
5496.85    590.570600    601.366700    78.684160
5501.17    560.040200    585.974100    82.221590
5505.48    588.872700    600.043600    79.260500
5509.79    607.335900    621.957500    83.334720
5514.10    605.897500    622.255300    82.702950
5518.41    585.626000    610.244600    83.812230
5522.72    537.748800    578.726000    84.597700
5527.03    621.762200    615.770200    77.552150
5531.34    667.785600    650.038000    82.860180
5535.65    654.350800    643.454300    83.025880
5539.96    637.167800    650.015100    89.815880
5544.27    568.828900    621.401000    96.858840
5548.58    551.767300    608.746400    93.650630
5552.89    565.500900    602.754500    86.256250
5557.20    593.054100    619.972800    88.893100
5561.51    576.019600    620.174700    94.239200
5565.82    553.668500    599.854900    90.605810
5570.13    841.222700    1316.517000    319.977000
5574.44    768.874900    3359.998000    1371.177000
5578.75    675.166600    3362.359000    1542.668000
5583.07    713.917600    1336.436000    484.062000
5587.38    580.827200    613.760000    94.857800
5591.69    586.083400    611.676100    88.656360
5596.00    575.066500    607.504000    91.257960
5600.31    629.796400    653.448500    94.323430
5604.62    637.687000    670.508100    105.078100
5608.93    616.396200    632.721800    95.568120
5613.24    624.581200    634.439000    87.115940
5617.55    620.819200    640.726500    92.941740
5621.86    584.228500    624.467100    98.253170
5626.17    595.577800    624.903600    93.327560
5630.48    597.387500    619.494700    93.356120
5634.79    571.971300    601.398500    86.682960
5639.10    607.991700    628.936200    93.271390
5643.41    646.348800    651.889300    95.250660
5647.72    615.809400    626.685000    90.847050
5652.03    614.590800    627.239100    91.206040
5656.34    638.822900    636.405000    88.372320
5660.66    647.308400    638.258500    88.703240
5664.97    628.321000    640.335000    94.158370
5669.28    629.349900    649.163000    94.181350
5673.59    643.316800    650.567700    94.444850
5677.90    604.955500    630.041000    95.765880
5682.21    601.153300    632.297200    95.789710
5686.52    637.242100    653.166400    94.575650
5690.83    643.257400    662.385600    101.496200
5695.14    620.724500    649.405600    101.374700
5699.45    627.080300    646.343700    100.895100
5703.76    611.203700    638.982400    97.513670
5708.07    581.136600    620.634400    95.610860
5712.38    626.356300    649.332900    98.841220
5716.69    622.586700    651.210300    98.986320
5721.00    616.940900    644.312100    100.533000
5725.31    623.267700    644.045100    99.268250
5729.62    622.719100    642.133200    94.995810
5733.93    628.051400    647.891500    97.640450
5738.25    599.639600    626.971700    93.597200
5742.56    603.162800    629.864300    92.500630
5746.87    649.013200    657.080900    95.531690
5751.18    681.506200    664.063200    93.267740
5755.49    651.521900    654.002600    96.713960
5759.80    621.751500    638.665500    96.767270
5764.11    617.883200    638.141700    94.400030
5768.42    638.101400    655.750400    102.525200
5772.73    642.449200    652.443500    95.944840
5777.04    631.891600    645.330000    98.919140
5781.35    651.050400    652.845700    98.694500
5785.66    623.755100    636.196000    95.352070
5789.97    638.914900    651.218800    96.281430
5794.28    652.229700    659.184900    94.900170
5798.59    588.045800    622.634300    94.882650
5802.90    604.237200    633.311400    96.779420
5807.21    648.368900    660.213800    94.783970
5811.52    632.303700    654.914200    100.578400
5815.83    652.275500    658.817100    96.137310
5820.15    622.124400    643.976700    99.220430
5824.46    624.734500    643.953200    101.410600
5828.77    632.326600    653.677800    102.553700
5833.08    595.903300    637.209500    103.760600
5837.39    648.127700    665.677700    99.572850
5841.70    689.119400    687.691800    101.156000
5846.01    660.478700    668.160300    101.539400
5850.32    646.462300    655.959200    98.517750
5854.63    647.638100    654.430700    99.324640
5858.94    683.931200    703.216500    107.749400
5863.25    679.883400    756.812700    137.281300
5867.56    654.585800    772.862400    153.292900
5871.87    645.303400    725.664000    138.543900
5876.18    620.727800    670.380100    114.203800
5880.49    678.228800    742.774700    126.198200
5884.80    714.957500    1210.592000    332.115100
5889.11    716.690600    1804.716000    623.998700
5893.42    733.265200    1690.573000    603.656700
5897.74    609.105100    1126.704000    363.316700
5902.05    662.477100    786.188500    166.752600
5906.36    686.935200    742.509900    135.677800
5910.67    708.936800    768.853100    136.965500
5914.98    667.937900    762.827100    149.041700
5919.29    637.703900    722.170700    135.278700
5923.60    619.029000    706.091700    129.822200
5927.91    648.733500    742.877900    139.355500
5932.22    669.065200    776.502300    152.358800
5936.53    665.649000    727.708800    134.032000
5940.84    662.004200    703.388500    119.282900
5945.15    665.385600    725.211100    128.538800
5949.46    672.848000    756.389500    141.087200
5953.77    686.629600    773.705400    144.164000
5958.08    670.683100    717.134800    127.487700
5962.39    699.518900    710.680200    112.444200
5966.70    724.772000    743.116800    121.184900
5971.01    704.859800    749.318800    133.854100
5975.33    697.980400    760.700300    144.188300
5979.64    701.301000    746.790600    126.545600
5983.95    731.937200    731.455700    113.777200
5988.26    700.719100    704.456400    109.150600
5992.57    703.510900    709.844400    113.444900
5996.88    669.257600    703.881200    118.903000
6001.19    666.145900    710.091700    124.322700
6005.50    709.567600    722.258200    113.991000
6009.81    700.456200    696.840800    110.763300
6014.12    662.088600    660.903100    103.646000
6018.43    629.727900    640.998500    98.372960
6022.74    662.880400    658.198800    99.416400
6027.05    681.732100    679.387000    102.916500
6031.36    675.489800    685.250200    108.346500
6035.67    671.828600    665.091600    104.380000
6039.98    722.447900    688.027600    97.785640
6044.29    739.589500    694.163700    99.384340
6048.60    730.272800    689.226100    94.630170
6052.92    698.022900    671.587800    96.185510
6057.23    716.360900    684.810200    95.816690
6061.54    744.354700    692.320200    94.988920
6065.85    748.667600    697.778900    99.289170
6070.16    755.832300    701.640200    98.173870
6074.47    721.973800    677.605800    92.303720
6078.78    704.495300    661.404500    92.029480
6083.09    746.502100    686.257600    92.485700
6087.40    733.547500    682.020100    91.701630
6091.71    759.710900    704.844400    93.743810
6096.02    743.679700    692.545300    97.805600
6100.33    708.365100    664.929700    99.401950
6104.64    666.478500    651.557100    95.931160
6108.95    685.657900    658.051000    94.211130
6113.26    651.106300    632.840500    95.487720
6117.57    665.065600    633.900100    88.482330
6121.88    710.119300    659.436500    88.030560
6126.19    692.856000    651.687700    90.125760
6130.50    627.966900    614.430800    90.576950
6134.82    636.352500    630.125700    94.647710
6139.13    599.799600    633.722000    107.309900
6143.44    611.997600    628.898900    103.559600
6147.75    672.442700    646.701200    98.370160
6152.06    646.963700    621.627100    91.361760
6156.37    661.735400    622.912000    87.501350
6160.68    676.000800    630.717300    88.611000
6164.99    697.813200    653.879500    92.502260
6169.30    752.992200    715.271900    109.382900
6173.61    684.711900    669.977700    110.737100
6177.92    681.503000    641.754800    94.321980
6182.23    712.273300    655.149000    90.360370
6186.54    710.178000    654.944000    89.047890
6190.85    695.868900    652.035900    92.762380
6195.16    717.425400    664.200800    92.063900
6199.47    717.371700    672.831400    99.061900
6203.78    698.109900    669.991800    103.734300
6208.09    707.615100    660.347000    93.220590
6212.41    720.224700    667.302800    90.298870
6216.72    717.240100    681.735200    99.575950
6221.03    726.146500    693.057700    108.418200
6225.34    760.876400    695.537800    93.198810
6229.65    711.304100    727.600800    120.147600
6233.96    731.059100    849.824500    183.131500
6238.27    753.269200    854.167800    183.175900
6242.58    707.950900    739.104900    135.198500
6246.89    682.119500    667.941200    109.878300
6251.20    675.440900    680.489400    115.300700
6255.51    699.249100    784.969400    159.934900
6259.82    710.967700    792.600900    164.908000
6264.13    697.847000    734.471200    139.191800
6268.44    724.312100    701.004400    111.008200
6272.75    699.510100    672.506100    102.788200
6277.06    684.101700    659.442200    104.475700
6281.37    698.189100    695.875600    115.709200
6285.68    759.937000    782.273300    142.977100
6290.00    775.149700    777.140700    138.309200
6294.31    667.096900    1041.030000    294.295700
6298.62    810.457400    1621.613000    575.994400
6302.93    843.279700    1419.410000    475.240100
6307.24    734.259600    882.604800    212.984000
6311.55    714.567000    697.360200    114.973200
6315.86    731.844200    686.125700    99.676830
6320.17    761.295000    731.637000    114.243500
6324.48    706.571400    745.386500    137.401800
6328.79    756.731600    793.893600    156.170200
6333.10    757.900300    749.923200    129.082500
6337.41    705.650300    659.543500    92.796840
6341.72    726.721400    675.884900    95.833290
6346.03    727.750600    692.695900    107.286600
6350.34    724.125800    716.746200    122.420200
6354.65    756.208500    768.904800    138.080000
6358.96    728.283600    882.112500    197.355200
6363.27    739.995800    970.569800    249.774300
6367.58    676.218900    760.091700    167.140800
6371.90    739.440500    677.945900    96.346950
6376.21    747.488000    680.731800    94.696170
6380.52    722.430400    692.070900    102.329400
6384.83    759.391800    726.034500    113.411600
6389.14    773.837300    696.608600    95.847340
6393.45    688.405000    630.970300    82.826920
6397.76    687.774400    624.032900    83.385900
6402.07    687.944500    628.925500    83.482720
6406.38    717.128600    637.616900    85.323730
6410.69    720.824900    649.975100    87.138660
6415.00    711.138400    658.006200    92.612250
6419.31    673.787700    645.261500    95.446370
6423.62    645.092500    603.162200    85.893470
6427.93    682.056800    617.476100    81.241550
6432.24    701.667700    627.967800    79.661580
6436.55    680.447800    613.809600    79.901140
6440.86    708.739800    631.007400    80.280530
6445.17    680.207800    615.943400    79.905450
6449.49    666.888400    619.595800    84.524530
6453.80    701.291000    638.613700    88.055790
6458.11    730.633500    684.161700    98.251910
6462.42    756.664600    763.199800    127.957900
6466.73    715.815600    773.702300    148.319300
6471.04    711.346800    738.452300    137.201500
6475.35    693.658200    673.001200    107.957800
6479.66    689.206800    639.161100    93.634410
6483.97    710.413500    630.747100    81.890050
6488.28    716.736800    633.610400    79.509070
6492.59    676.332200    665.866200    107.370000
6496.90    676.030800    767.588500    159.431800
6501.21    734.916600    786.737700    158.810200
6505.52    743.202900    709.998600    116.279700
6509.83    718.476300    660.345000    92.170660
6514.14    697.681500    641.342200    88.681220
6518.45    683.615500    646.142000    93.456930
6522.76    693.790900    655.287300    98.172660
6527.08    710.010300    693.564100    110.388000
6531.39    766.836600    779.543800    138.956900
6535.70    764.036100    746.684000    127.944300
6540.01    712.670100    680.329700    107.214200
6544.32    731.049900    699.818400    111.057700
6548.63    715.453500    733.296000    127.929500
6552.94    782.105400    811.390700    154.627100
6557.25    724.494600    714.512200    121.856200
6561.56    725.434400    663.978300    95.540220
6565.87    771.132900    709.311500    102.956200
6570.18    763.596800    717.168800    110.222100
6574.49    735.373500    753.373000    133.869500
6578.80    732.872000    735.593900    129.225600
6583.11    700.507800    651.376100    96.335710
6587.42    769.146200    657.401400    79.503470
6591.73    740.492500    663.207800    84.703130
6596.04    792.905800    715.442700    100.379800
6600.35    778.596400    728.453900    111.801200
6604.67    764.660200    714.404900    111.349800
6608.98    720.910900    647.607800    85.406110
6613.29    757.657700    646.556100    74.719410
6617.60    755.381300    646.419200    76.781230
6621.91    748.403500    652.194100    78.279500
6626.22    721.598000    652.009900    86.503430
6630.53    723.713400    656.278800    93.419240
6634.84    720.845900    656.813000    97.214100
6639.15    742.632200    646.777600    82.185060
6643.46    717.862900    619.886900    74.135120
6647.77    758.155200    645.133700    74.108060
6652.08    727.247600    625.549800    73.846730
6656.39    760.673200    643.501000    71.455330
6660.70    759.031400    652.184500    79.936810
6665.01    780.921600    667.266300    79.376200
6669.32    769.815200    658.007800    78.830680
6673.63    737.336200    634.202700    78.053240
6677.94    786.472500    659.697300    73.634190
6682.25    804.537200    662.716200    73.152140
6686.57    719.139800    623.417100    74.007080
6690.88    750.252700    633.631800    73.974130
6695.19    719.193900    632.336300    78.709730
6699.50    759.125800    654.678000    80.350230
6703.81    751.929300    647.869600    78.727510
6708.12    763.502700    646.413400    73.645090
6712.43    749.670500    642.861800    78.213450
6716.74    776.824900    657.695300    77.653500
6721.05    742.034200    633.792100    77.106380
6725.36    768.990300    645.634900    75.233440
6729.67    743.495700    634.219600    74.343270
6733.98    751.614800    632.732400    72.904930
6738.29    724.712900    624.961800    77.643120
6742.60    754.746500    645.616000    81.859160
6746.91    754.642800    630.776700    70.873540
6751.22    749.560500    626.700900    68.019540
6755.53    712.005200    607.279700    68.517650
6759.84    736.996300    617.987500    72.822590
6764.16    748.018700    620.827000    68.542160
6768.47    679.783700    582.322500    65.420330
6772.78    687.266400    590.779700    68.299510
6777.09    751.748400    623.687300    67.917690
6781.40    743.835000    621.609200    70.187030
6785.71    724.532700    615.549200    71.669530
6790.02    767.976000    631.131500    71.393470
6794.33    701.714800    593.843900    68.177900
6798.64    711.863300    595.468900    69.480410
6802.95    727.864000    603.115800    68.479990
6807.26    754.579700    626.811100    68.267190
6811.57    762.358800    633.748600    69.809780
6815.88    739.795200    613.001800    66.448850
6820.19    805.788100    676.021300    77.877310
6824.50    778.780100    832.887300    164.877000
6828.81    776.536000    1010.887000    259.637100
6833.12    787.571200    963.857300    238.433400
6837.43    762.375500    788.638500    156.201200
6841.75    762.413600    705.780100    111.463100
6846.06    721.402800    633.485200    82.193340
6850.37    752.054300    625.377800    71.408840
6854.68    816.170000    692.653700    83.370350
6858.99    889.177900    927.076800    175.706200
6863.30    779.694800    995.067300    259.428200
6867.61    586.196400    710.415800    175.456500
6871.92    527.453600    519.614500    85.170730
6876.23    575.922100    542.390100    76.932900
6880.54    625.344100    595.446300    93.178790
6884.85    640.869800    626.128200    104.449900
6889.16    644.423200    633.967900    111.383800
6893.47    652.726600    604.174100    95.559680
6897.78    677.686200    628.355500    95.250530
6902.09    712.840700    643.355800    91.059880
6906.40    678.349700    636.742200    96.556330
6910.71    686.731800    689.363300    125.457500
6915.02    686.832300    683.265000    119.451400
6919.33    681.916600    747.326700    152.546000
6923.65    708.196200    777.999800    167.657300
6927.96    705.909600    655.914900    106.788700
6932.27    724.954400    631.814900    81.748360
6936.58    726.750900    699.185200    115.626800
6940.89    716.795700    721.873300    131.511800
6945.20    716.981800    801.549000    171.737500
6949.51    729.979500    830.235300    191.372600
6953.82    729.871500    689.529900    120.030200
6958.13    700.762600    599.956100    78.044110
6962.44    695.340300    612.255400    85.502270
6966.75    697.340000    656.734700    106.880300
6971.06    742.874500    705.404400    116.241700
6975.37    686.741700    727.159400    143.509800
6979.68    701.859900    724.774400    145.968300
6983.99    679.108900    618.938700    92.636360
6988.30    669.818400    577.410500    72.779320
6992.61    688.386900    588.355000    71.063170
6996.92    722.147900    617.499200    79.764910
7001.24    713.111300    637.238200    91.364750
7005.55    682.178800    634.394000    97.057650
7009.86    703.239400    661.688400    105.071900
7014.17    720.906400    634.672100    87.533420
7018.48    744.374300    608.206300    66.676800
7022.79    715.283200    593.239000    67.015650
7027.10    725.914200    602.869700    71.158860
7031.41    690.403500    584.879900    70.200960
7035.72    647.792000    566.407600    70.098300
7040.03    716.145300    624.015300    81.336520
7044.34    688.775500    639.411900    99.284810
7048.65    666.567200    635.435300    107.248500
7052.96    664.778300    604.752300    87.872010
7057.27    704.850000    604.571500    76.970990
7061.58    728.969200    622.413200    78.044440
7065.89    666.404400    590.702800    82.473530
7070.20    662.781400    587.988900    82.392300
7074.51    663.271200    589.255700    84.895390
7078.83    659.402500    595.225000    83.085580
7083.14    672.374600    605.327500    87.352710
7087.45    647.508900    586.626000    84.421740
7091.76    669.712400    585.244100    79.558660
7096.07    670.341400    575.969000    73.184160
7100.38    681.658200    578.724400    71.302700
7104.69    740.459300    607.439600    69.539690
7109.00    692.252000    580.378900    64.804680
7113.31    666.115800    560.092500    68.118340
7117.62    697.338800    576.698000    64.869860
7121.93    672.042200    570.752600    67.663180
7126.24    669.893400    583.547800    73.240670
7130.55    665.586200    583.582000    78.118820
7134.86    651.145900    571.394600    75.759840
7139.17    639.913600    571.686100    78.726870
7143.48    644.263400    592.981400    89.323930
7147.79    686.865500    608.495100    86.231960
7152.10    683.978300    588.653900    75.468840
7156.42    640.960300    560.389600    72.816990
7160.73    668.776900    582.558200    72.604520
7165.04    624.968200    562.112100    78.202980
7169.35    581.024800    536.357200    79.410900
7173.66    640.489900    564.714500    71.672120
7177.97    648.215100    569.996300    77.454980
7182.28    589.052100    522.541800    69.242210
7186.59    571.613800    495.077900    56.907620
7190.90    577.962800    495.229300    57.916210
7195.21    599.503200    512.916900    59.273720
7199.52    595.426900    509.449400    58.358900
7203.83    565.499600    493.478200    58.383420
7208.14    561.354600    492.797600    59.060860
7212.45    629.833700    529.758100    59.839330
7216.76    637.080500    539.394800    60.116700
7221.07    628.996400    542.638200    62.368740
7225.38    615.816500    539.260000    65.536390
7229.69    567.540900    533.246700    75.337700
7234.00    583.338600    729.939900    166.130700
7238.32    598.109200    1123.812000    365.278400
7242.63    628.693700    1245.895000    441.638000
7246.94    640.807900    969.439600    303.269500
7251.25    614.517600    709.589500    163.529700
7255.56    589.284100    611.865800    114.934800
7259.87    579.330800    548.144000    87.688480
7264.18    570.648400    528.478300    73.640640
7268.49    629.368000    685.283400    129.530400
7272.80    628.851400    1032.393000    312.776800
7277.11    552.312600    1110.585000    389.869000
7281.42    595.981600    914.787500    273.533800
7285.73    634.487100    769.337000    189.286700
7290.04    625.321400    639.802400    118.278300
7294.35    588.148900    606.445800    111.640500
7298.66    594.021500    652.676600    127.179300
7302.97    579.426800    668.002400    146.071500
7307.28    621.255100    673.024000    129.370100
7311.59    608.972000    844.675200    216.381500
7315.91    572.972400    965.962200    308.531900
7320.22    644.631300    787.198600    200.539700
7324.53    642.108400    703.804400    144.886100
7328.84    647.538600    780.760900    178.105400
7333.15    707.413700    818.722800    175.893100
7337.46    722.146200    1071.143000    302.631000
7341.77    705.512900    1115.937000    351.327000
7346.08    639.766500    742.912700    179.114300
7350.39    576.202600    571.939800    94.674650
7354.70    605.184600    683.425500    143.521600
7359.01    621.650000    760.242200    188.951000
7363.32    649.490700    818.903000    198.130100
7367.63    595.562700    965.625200    298.341100
7371.94    627.843500    848.030700    240.377700
7376.25    616.630800    593.603200    102.765200
7380.56    548.764600    506.519500    66.515680
7384.87    595.659300    564.016500    83.695940
7389.18    576.786300    642.031700    128.017500
7393.50    588.865500    698.984400    155.804900
7397.81    618.808300    795.591400    192.591900
7402.12    538.000900    781.875900    216.985400
7406.43    568.650800    624.362100    132.178100
7410.74    558.125000    522.250900    77.685540
7415.05    571.275000    524.783900    72.685230
7419.36    559.925800    511.573000    70.056120
7423.67    565.777500    542.715800    78.483890
7427.98    551.104700    586.031900    106.956500
7432.29    536.742200    614.583700    124.320600
7436.60    538.859900    654.261100    147.725300
7440.91    583.535000    634.947000    128.423300
7445.22    591.040900    543.836500    74.828640
7449.53    538.443200    494.116900    61.093640
7453.84    568.858000    513.970900    64.590140
7458.15    565.287500    540.986300    79.285540
7462.46    587.806500    601.986600    102.332300
7466.77    586.857000    658.016700    135.739400
7471.08    548.877600    687.931300    156.857300
7475.40    600.691800    734.368100    168.779400
7479.71    563.643600    724.188800    175.858300
7484.02    545.232900    657.558200    149.517600
7488.33    564.513700    575.260600    101.763600
7492.64    580.818400    557.224500    85.816630
7496.95    588.251300    547.840000    79.922080
7501.26    575.869000    526.802700    74.136550
7505.57    572.128500    512.829300    65.064060
7509.88    537.322800    499.271200    68.295640
7514.19    566.649300    556.791300    85.148860
7518.50    614.895600    732.264800    160.973400
7522.81    587.961500    869.888500    247.712700
7527.12    594.170500    798.719000    219.633100
7531.43    580.016300    633.427500    128.847900
7535.74    567.153700    554.377700    93.592390
7540.05    590.098100    548.954800    77.153880
7544.36    565.528000    520.346200    71.601710
7548.67    575.401400    525.178200    70.775670
7552.99    584.073500    567.854700    90.950100
7557.30    605.178600    592.809700    94.548140
7561.61    596.281600    574.764100    87.681970
7565.92    623.706700    657.725100    121.998900
7570.23    595.913900    763.392100    182.286000
7574.54    583.565600    679.431900    160.287400
7578.85    575.409200    558.318800    91.981830
7583.16    576.402300    584.430700    99.641330
7587.47    537.003600    563.272300    106.028800
7591.78    413.711300    444.612700    77.716870
7596.09    256.243900    347.448800    68.706970
7600.40    170.981200    280.636200    63.737620
7604.71    126.681700    216.771500    41.272040
7609.02    162.876700    235.621300    39.802650
7613.33    291.504500    360.158400    64.366130
7617.64    374.054000    451.162700    87.529820
7621.95    330.553000    416.898800    88.540690
7626.26    281.409500    384.721400    83.973110
7630.58    269.443500    364.423200    75.725350
7634.89    293.556300    333.846800    52.900420
7639.20    315.931500    345.375200    53.359990
7643.51    344.674900    366.284700    54.449580
7647.82    378.743700    398.851700    62.763730
7652.13    447.872100    458.823100    73.966770
7656.44    471.765200    490.867500    82.330820
7660.75    463.141300    512.786400    97.261670
7665.06    496.491800    503.060200    86.954810
7669.37    486.006400    464.488300    67.412220
7673.68    493.026100    458.246300    61.601130
7677.99    548.883200    497.575600    67.025790
7682.30    562.778000    521.415900    78.820860
7686.61    563.625500    540.399000    82.635760
7690.92    547.973100    536.803400    88.222720
7695.23    530.304100    536.567400    94.964140
7699.54    592.779500    571.092800    91.438800
7703.85    668.023300    646.279800    107.096700
7708.17    629.722400    945.752700    261.873100
7712.48    558.718500    1349.241000    507.611100
7716.79    645.860500    1349.321000    502.410900
7721.10    647.345200    954.520400    292.291100
7725.41    577.395000    703.749100    171.437600
7729.72    536.675400    586.466600    121.239300
7734.03    540.659800    548.113000    98.720290
7738.34    564.080400    549.441700    90.930810
7742.65    631.975400    712.576400    149.202800
7746.96    578.650900    1083.190000    358.133400
7751.27    545.269700    1185.858000    445.753500
7755.58    625.083200    947.311300    295.893300
7759.89    590.387700    770.305500    200.690600
7764.20    594.703600    644.934100    136.447400
7768.51    609.804300    609.403000    115.059100
7772.82    570.842300    650.922800    146.413100
7777.13    554.016900    688.779100    175.990100
7781.44    541.619300    651.282000    156.341300
7785.75    638.760800    700.321700    148.817100
7790.07    567.110200    913.653000    279.594700
7794.38    565.188800    979.092300    327.479600
7798.69    613.846800    738.780400    190.990000
7803.00    577.923600    638.575700    137.038800
7807.31    483.203600    689.425000    186.751200
7811.62    552.872300    699.079700    176.156300
7815.93    631.504000    907.062200    258.733200
7820.24    576.348400    1109.573000    382.093700
7824.55    577.723800    896.347500    286.951900
7828.86    613.136600    605.321900    119.119300
7833.17    575.301100    560.051900    91.890720
7837.48    550.830500    657.390100    146.752200
7841.79    600.009400    740.273800    186.669300
7846.10    589.535200    848.718100    233.398500
7850.41    529.032400    1165.652000    421.070400
7854.72    633.092900    1260.885000    459.568600
7859.03    713.301700    1038.426000    313.755500
7863.34    665.838800    880.060100    241.381300
7867.66    559.073200    850.885700    257.720900
7871.97    562.769800    817.388100    239.468000
7876.28    606.626800    801.800500    215.966800
7880.59    607.370000    814.619900    219.138100
7884.90    526.412600    814.122100    244.976800
7889.21    533.458100    850.614400    264.826600
7893.52    560.054400    709.222400    190.570200
7897.83    557.134800    548.174000    96.343800
7902.14    547.255200    539.793500    85.182380
7906.45    584.426700    768.574800    188.166300
7910.76    497.143900    1158.540000    420.455300
7915.07    522.132800    1239.579000    481.198200
7919.38    524.789300    993.633300    349.743000
7923.69    628.953900    834.487500    227.045600
7928.00    512.486300    728.622600    197.440700
7932.31    545.023500    712.992200    185.601800
7936.62    526.144300    566.936800    113.566900
7940.93    541.534300    545.672200    94.477080
7945.25    490.695400    612.358800    136.248600
7949.56    524.278900    636.412000    151.427500
7953.87    570.973900    585.354200    114.221300
7958.18    556.072000    708.107700    174.819000
7962.49    482.441700    951.613200    328.898600
7966.80    569.401000    931.679800    303.212200
7971.11    595.075400    695.193500    163.185500
7975.42    488.606100    688.112500    178.248800
7979.73    452.893600    697.136900    205.383700
7984.04    -451.293300    53.155610    163.942400
7988.35    -39.959170    11.592650    12.278000
7992.66    -123.083100    26.846720    39.339000
7996.97    -2499999999999999908974073741312.000000    -2499999999999999908974073741312.000000    39.339000
8001.28    -2499999999999999908974073741312.000000    -2499999999999999908974073741312.000000    39.339000
8005.59    -2499999999999999908974073741312.000000    -2499999999999999908974073741312.000000    39.339000
8009.90    -2499999999999999908974073741312.000000    -2499999999999999908974073741312.000000    39.339000
