#Wavelength     Flux    Sky Spectrum 
#[Angstrom]   [Counts]     [Counts]
3662.27     3.602265    -1.023918
3663.74    25.243982    17.053486
3665.21     9.118546    10.479921
3666.68    17.644232     8.200720
3668.15    -3.743012    -12.142207
3669.62    32.021938    18.840181
3671.09    50.754173    29.102137
3672.56    31.993673    30.193264
3674.03    21.242399    21.020741
3675.50    21.072670    22.867241
3676.97     0.159369    13.476958
3678.44    21.771143    18.819300
3679.91    15.369445     7.225050
3681.38    14.950787    10.601505
3682.85    11.327501    17.252697
3684.32     1.116432     8.543736
3685.79    25.721216    27.322397
3687.26    37.303490    31.172707
3688.73    59.512115    58.782124
3690.20    34.554226    39.292854
3691.67    34.706158    33.575512
3693.14    57.104160    54.405952
3694.61    40.862328    33.412483
3696.08    30.042704    31.587559
3697.55    30.236507    32.078186
3699.02    36.492668    39.229301
3700.49    11.310846    12.903234
3701.96     7.209639     8.395054
3703.43    10.993660    13.452287
3704.90    28.446062    27.471931
3706.37    27.019173    25.854099
3707.83    47.210770    45.036037
3709.30    -4.000456    -11.118542
3710.77    58.047020    54.778030
3712.24    44.398678    58.613537
3713.71     2.786664    10.792542
3715.18     7.560412     5.139282
3716.65     4.098445    -4.587811
3718.12    52.727001    43.948338
3719.59    22.099001    17.411776
3721.06    14.178941    12.302141
3722.53     0.237894     0.110427
3724.00    -14.085641    -47.307026
3725.47     6.246067    -2.890389
3726.94    -45.375149    -28.044031
3728.41    -47.507267    -46.022675
3729.88    37.547920    30.545643
3731.35    26.115831    28.525753
3732.82    24.572319    34.580490
3734.29    13.896272    14.291399
3735.76    56.184967    59.625420
3737.23    60.703915    69.232430
3738.70    26.064104    28.538876
3740.17    34.421467    37.389942
3741.64    55.526909    40.006504
3743.11    26.100719    20.997904
3744.58     7.864289     4.729969
3746.05    27.777855    27.844908
3747.52    20.998131    25.047310
3748.99     9.140246    10.411612
3750.46    -1.244008    -2.658111
3751.93    24.972525    21.581654
3753.40    35.705395    34.930614
3754.87    39.817451    48.866341
3756.34    -15.416975    -14.478320
3757.81    37.565582    34.158669
3759.28    18.317215    14.640953
3760.75    44.933773    37.812103
3762.22    45.421959    37.976196
3763.69    38.271229    34.451385
3765.16     3.372477    -2.600793
3766.63     7.234447     8.439222
3768.10     3.684456     7.075705
3769.57    24.327269    23.766144
3771.04    39.836613    44.380547
3772.51     3.739217     6.817748
3773.98    19.264748    15.912607
3775.45    55.037502    51.513870
3776.92    17.753937    11.322647
3778.39    10.743012    13.166773
3779.86     6.623452     6.003581
3781.33     5.740783     1.386058
3782.80    27.890472    30.292345
3784.27    18.503946    21.409534
3785.74    35.460583    37.311897
3787.21    74.353508    71.926651
3788.68    41.306850    36.019066
3790.15    57.429424    53.776382
3791.62    22.923281    23.071228
3793.09     7.706891     8.160033
3794.56    30.104614    26.228590
3796.03    -9.500148    -11.327445
3797.50    -12.553809    -13.888536
3798.97    49.585979    37.954422
3800.44    63.521935    57.561153
3801.91     0.987510    -15.718651
3803.38    41.609539    32.677460
3804.85    22.396204    23.004944
3806.32    43.282410    44.311050
3807.79    39.079880    38.624119
3809.26     4.172567     7.390749
3810.73    -0.968254    -7.956822
3812.20    42.567043    46.552128
3813.67    16.591854    14.912844
3815.13    34.965061    29.426228
3816.60    45.211739    36.856327
3818.07    50.911922    44.561726
3819.54    26.822048    27.330420
3821.01    41.819378    41.945911
3822.48    21.888979    13.863069
3823.95    23.366697    24.739267
3825.42    42.776562    45.504940
3826.89     5.613712     2.732058
3828.36    30.938969    28.964876
3829.83    65.571526    60.566582
3831.30     9.436769     8.599605
3832.77    -14.167334    -18.825298
3834.24    12.051860    15.600901
3835.71    11.280166     1.893436
3837.18    14.795938    -12.342773
3838.65    18.985592    23.372997
3840.12    21.690285    26.704502
3841.59    45.976658    44.040840
3843.06    38.823311    44.204742
3844.53    25.562536    26.158075
3846.00    25.092491    16.655807
3847.47    34.144375    31.302780
3848.94    29.461843    30.739855
3850.41    67.329445    71.673866
3851.88    39.943604    43.976517
3853.35     9.512897     4.234239
3854.82    38.334263    30.796297
3856.29     0.870300    -0.061613
3857.76     0.932427    -0.978511
3859.23    15.841634     5.452463
3860.70    21.876255    26.491356
3862.17     8.732037    10.724677
3863.64    -0.413817    -5.153181
3865.11    38.999645    43.088650
3866.58    30.378683    29.651360
3868.05    20.852407    14.492857
3869.52    33.970882    27.421326
3870.99    24.010046    10.045582
3872.46    16.590540    26.071129
3873.93    38.843361    44.815495
3875.40    20.502001    13.636801
3876.87    37.781425    45.379181
3878.34    52.273796    50.917011
3879.81    48.262962    47.086792
3881.28    21.540043    16.897417
3882.75    28.276258    27.915903
3884.22    87.523514    86.383751
3885.69    21.659319    18.618200
3887.16    65.926231    61.900402
3888.63    36.018921    28.471098
3890.10    26.449003    22.067871
3891.57    29.297447    32.483894
3893.04    40.771904    36.975536
3894.51    31.852114    27.887548
3895.98    36.570118    34.052982
3897.45    29.455568    39.727451
3898.92    18.813210    16.235823
3900.39    23.265078    18.482796
3901.86    25.070122    19.937944
3903.33    37.479443    34.567806
3904.80     4.752303    -4.407897
3906.27    28.872631    25.457930
3907.74    -1.811175    -0.861164
3909.21    18.017178    -2.357820
3910.68    39.684582    44.856941
3912.15    52.684135    57.685711
3913.62    32.077114    27.336533
3915.09    19.856531    19.630436
3916.56    -29.776600    -22.489931
3918.03    26.326942    17.696669
3919.50    -22.133314    -21.532808
3920.97    -4.242199    -20.772247
3922.43    41.011620    27.525539
3923.90    16.875505    12.093907
3925.37    10.933175    10.125671
3926.84    -18.750759    -19.312990
3928.31    -6.650045    -2.833675
3929.78    43.087399    51.117104
3931.25    31.219727    29.216747
3932.72    -5.192657    -8.611706
3934.19    15.377943    14.257064
3935.66    -0.495752    -10.378440
3937.13    30.472288    25.129509
3938.60    59.499504    65.114571
3940.07    24.667545    25.510038
3941.54    19.059341    22.204689
3943.01    19.069189    34.722385
3944.48    36.070709    32.479797
3945.95    25.950123    30.142086
3947.42    20.478374    19.554604
3948.89    48.955612    54.295521
3950.36    40.254265    43.552750
3951.83    39.482948    26.148149
3953.30    -9.648026    -27.379637
3954.77    13.390727     5.449219
3956.24    25.912169    25.274677
3957.71    14.545267    12.730103
3959.18    32.903015    41.062077
3960.65    29.968866    34.805424
3962.12    29.277748    26.114433
3963.59    54.217094    57.185291
3965.06    56.123116    60.202263
3966.53    36.824375    37.169113
3968.00    45.358097    38.435738
3969.47    42.808464    36.683121
3970.94    35.806488    33.836060
3972.41    13.474417    16.508276
3973.88    18.635668    27.645063
3975.35    32.446342    42.272285
3976.82    47.555416    55.104595
3978.29    71.964760    73.344780
3979.76    45.449444    22.439512
3981.23    -29.593121    -37.178295
3982.70    34.842846    39.727779
3984.17    64.786781    64.265739
3985.64    65.562340    68.434265
3987.11    12.541347     3.682535
3988.58    10.608130    16.904694
3990.05    53.658760    63.593994
3991.52    77.574196    75.512283
3992.99    58.335548    57.165684
3994.46    62.660107    58.136433
3995.93    47.734421    52.466599
3997.40    33.993362    33.171474
3998.87    33.128609    32.167664
4000.34    20.486975    19.516691
4001.81    31.217794    23.814959
4003.28    46.987324    46.339363
4004.75    72.790894    61.501095
4006.22    57.612614    53.936531
4007.69    76.761429    95.506096
4009.16    60.511494    60.970875
4010.63    133.242432    137.106262
4012.10    91.276169    92.446037
4013.57    36.285313    31.386261
4015.04    32.567905    23.730509
4016.51    10.670983     0.732123
4017.98    43.172215    44.452122
4019.45    38.724808    45.807251
4020.92    38.709637    34.427696
4022.39    47.527660    41.639877
4023.86    41.487057    45.514088
4025.33    36.264908    34.688705
4026.80    38.961712    28.660593
4028.27    24.913115     2.378449
4029.73    30.847767    27.710709
4031.20    -3.351744    -12.332401
4032.67    13.998055     6.763453
4034.14    18.039263    16.288708
4035.61    18.445230    20.917421
4037.08    29.411781    28.196455
4038.55    41.764194    40.492920
4040.02    12.870106    18.080061
4041.49    42.040649    38.654587
4042.96    43.531593    33.241886
4044.43    47.171543    39.126984
4045.90    54.746368    44.181404
4047.37    65.516861    56.269623
4048.84    67.618469    66.557785
4050.31    48.607159    42.479103
4051.78    35.465305    30.272938
4053.25    58.205532    55.751083
4054.72    36.451870    41.228622
4056.19     2.727642     1.188928
4057.66    66.063126    50.896671
4059.13    66.644226    68.815903
4060.60    39.690777    48.893272
4062.07    68.083893    50.686413
4063.54    32.248913    19.049017
4065.01    -20.641817    -17.855186
4066.48    19.112923    16.721176
4067.95    60.532120    57.598522
4069.42    -0.199007     3.956732
4070.89    14.890003    12.931455
4072.36    35.426140    33.814129
4073.83     4.043940    31.156778
4075.30    41.528992    57.502487
4076.77    49.848610    44.204090
4078.24    47.104744    35.543758
4079.71    112.203346    88.639626
4081.18    93.402634    77.005661
4082.65    85.193771    95.806061
4084.12    83.430771    94.269958
4085.59    40.793678    42.458630
4087.06    61.592098    64.560135
4088.53    55.440163    38.237831
4090.00    56.351452    20.170973
4091.47    103.370056    98.995079
4092.94    51.919521    53.625217
4094.41    84.628250    91.604012
4095.88    88.405716    119.451515
4097.35    113.580032    111.207901
4098.82    96.706284    117.609406
4100.29    50.013000    50.899010
4101.76    79.099480    45.964069
4103.23    73.444511    75.177765
4104.70     8.490419    41.266075
4106.17    21.763767    21.153042
4107.64    61.331665    46.496845
4109.11    90.377983    63.512478
4110.58    104.092934    80.060913
4112.05    32.626686    25.583443
4113.52    91.282913    80.681572
4114.99    93.180794    82.397514
4116.46    76.969284    75.959793
4117.93    54.320732    33.278313
4119.40    98.512505    87.471039
4120.87    104.690979    116.139473
4122.34    148.332428    149.667053
4123.81    78.661522    62.098553
4125.28    61.989613    38.485657
4126.75    125.078278    87.053612
4128.22    128.061874    126.691910
4129.69    94.614296    96.687988
4131.16    50.256268    40.217041
4132.63    62.836910    69.895248
4134.10    66.088623    75.845528
4135.57    70.181732    78.972977
4137.03    87.873650    129.042862
4138.50    94.269318    109.158066
4139.97    77.045868    76.373268
4141.44    95.757362    93.475426
4142.91    66.433121    54.353127
4144.38    66.835075    61.349216
4145.85    65.419571    68.031136
4147.32    72.413437    66.427483
4148.79    84.591370    77.790527
4150.26    98.522781    101.994942
4151.73    75.409470    85.953850
4153.20    51.374580    44.827816
4154.67    81.295052    66.472923
4156.14    109.157272    113.668076
4157.61    105.046043    100.438469
4159.08    96.358093    94.709877
4160.55    108.863426    109.436676
4162.02    88.817909    91.218475
4163.49    81.545326    84.558014
4164.96    75.142120    65.118515
4166.43    47.054695    41.848927
4167.90    75.947975    82.700523
4169.37    95.418098    94.395943
4170.84    108.265923    108.665474
4172.31    84.451118    88.852234
4173.78    61.074421    49.271042
4175.25    79.146469    76.941353
4176.72    78.167374    75.904137
4178.19    93.455681    76.252945
4179.66    76.804077    66.246941
4181.13    87.333298    93.961296
4182.60    103.270317    114.066750
4184.07    115.917030    123.177185
4185.54    133.907608    138.116226
4187.01    85.264748    79.285080
4188.48    91.343773    76.772575
4189.95    114.857002    110.964958
4191.42    115.949867    100.514626
4192.89    124.685257    111.036163
4194.36    132.062134    127.141815
4195.83    125.415115    116.942207
4197.30    96.873611    87.613800
4198.77    96.928268    87.222733
4200.24    90.415039    97.522217
4201.71    99.344772    99.174767
4203.18    81.705063    63.410782
4204.65    93.892113    79.190666
4206.12    111.432343    102.609406
4207.59    128.655365    127.254318
4209.06    96.953278    100.769684
4210.53    86.495857    56.592346
4212.00    93.886177    72.946152
4213.47    103.609467    98.403725
4214.94    112.684517    99.527702
4216.41    95.518814    90.721245
4217.88    103.586143    107.709091
4219.35    90.330620    77.123665
4220.82    86.771042    69.334175
4222.29    87.614265    79.334686
4223.76    113.504173    115.018906
4225.23    78.333427    93.518150
4226.70    121.187164    124.312042
4228.17    99.812874    91.894913
4229.64    82.750740    90.491364
4231.11    99.692924    108.137825
4232.58    100.700333    104.117645
4234.05    75.933525    76.437561
4235.52    85.165825    93.103928
4236.99    121.643730    127.223114
4238.46    129.596863    127.943039
4239.93    138.161972    152.013123
4241.40    136.622208    134.087326
4242.87    98.741890    89.146957
4244.33    113.500267    109.310265
4245.80    125.963417    139.340744
4247.27    81.653046    86.480888
4248.74    103.208092    101.424271
4250.21    56.113956    57.493095
4251.68    97.896172    123.474449
4253.15    105.155190    98.355125
4254.62    98.957230    112.775284
4256.09    139.387054    142.522659
4257.56    147.942902    156.215393
4259.03    95.243462    83.633278
4260.50    98.061218    86.877899
4261.97    67.035248    58.801342
4263.44    123.750397    125.787132
4264.91    125.367340    116.588463
4266.38    91.649910    85.020630
4267.85    93.714874    91.311874
4269.32    83.161240    85.482079
4270.79    106.729393    111.404808
4272.26    92.038612    87.491203
4273.73    73.467354    56.432850
4275.20    97.970291    93.989151
4276.67    100.490005    108.204590
4278.14    89.762016    72.886467
4279.61    80.246414    64.642189
4281.08    107.742844    110.812027
4282.55    98.457329    79.281631
4284.02    115.848137    116.596817
4285.49    79.912048    86.829247
4286.96    101.668739    115.352486
4288.43    91.702263    105.730103
4289.90    105.844887    101.739853
4291.37    132.641632    137.791199
4292.84    123.798058    130.204712
4294.31    117.117149    114.877144
4295.78    110.672203    114.708778
4297.25    139.059875    145.887146
4298.72    112.338623    103.345215
4300.19    120.901672    119.846123
4301.66    137.566132    154.270355
4303.13    129.389236    134.216049
4304.60    142.866669    123.773224
4306.07    115.180641    112.010620
4307.54    140.541840    146.965469
4309.01    117.160873    117.992981
4310.48    145.495010    142.624527
4311.95    112.840218    118.938049
4313.42    115.056961    115.445763
4314.89    146.319122    132.176987
4316.36    152.527817    147.950348
4317.83    136.975433    143.854141
4319.30    124.564056    118.492981
4320.77    148.406082    147.784897
4322.24    149.253281    155.927673
4323.71    133.308624    132.326721
4325.18    135.308914    136.727448
4326.65    177.321350    179.693619
4328.12    163.052933    155.874207
4329.59    112.885818    107.278854
4331.06    89.502411    86.271469
4332.53    117.836021    116.764900
4334.00    125.441780    135.408188
4335.47    131.588943    153.947830
4336.94    124.487808    131.291687
4338.41    144.974487    147.552551
4339.88    156.926071    159.722488
4341.35    159.417786    167.080200
4342.82    138.204117    136.298279
4344.29    161.114319    161.051193
4345.76    194.000870    198.111267
4347.23    149.642319    162.148193
4348.70    156.026840    170.618286
4350.17    168.695496    156.795105
4351.63    167.276276    158.866638
4353.10    147.842300    155.605240
4354.57    153.044205    166.289764
4356.04    181.252869    185.922363
4357.51    138.745941    137.351944
4358.98    122.876427    184.564178
4360.45    125.871628    152.883301
4361.92    124.817909    120.844559
4363.39    128.111404    123.993759
4364.86    124.579361    131.463745
4366.33    141.169876    152.745544
4367.80    153.170975    173.059845
4369.27    179.470871    189.929672
4370.74    174.621002    175.136719
4372.21    156.213882    156.247681
4373.68    154.621994    159.965118
4375.15    164.064392    168.389938
4376.62    139.493057    136.113419
4378.09    146.434402    149.289169
4379.56    143.891052    139.773117
4381.03    152.722275    147.773941
4382.50    157.263153    161.780457
4383.97    194.621521    193.966583
4385.44    203.685623    209.037079
4386.91    191.067200    195.926544
4388.38    170.506973    164.725082
4389.85    136.764755    132.435440
4391.32    128.430634    134.738235
4392.79    146.872635    144.517715
4394.26    135.972748    139.632339
4395.73    122.536842    123.497566
4397.20    161.533417    162.865402
4398.67    145.541229    144.960815
4400.14    119.147888    126.165497
4401.61    102.799545    134.586670
4403.08    121.911774    137.958099
4404.55    134.136978    132.476135
4406.02    101.046677    100.780205
4407.49    140.501968    146.048584
4408.96    134.558884    135.819000
4410.43    98.002037    102.677414
4411.90    112.424477    123.117302
4413.37    138.215393    146.518387
4414.84    148.535080    155.581024
4416.31    138.015610    124.477081
4417.78    145.977570    140.308517
4419.25    207.169647    218.233353
4420.72    178.965836    187.472260
4422.19    190.786087    194.121353
4423.66    213.656784    209.174500
4425.13    212.355331    203.438660
4426.60    185.133865    157.044373
4428.07    235.166656    394.517456
4429.54    215.849380    1456.458130
4431.01    210.647766    574.919250
4432.48    210.345291    237.299622
4433.95    183.042648    166.390381
4435.42    171.460526    170.184341
4436.89    149.569702    180.097992
4438.36    209.395599    213.451096
4439.83    254.237961    257.968353
4441.30    210.797318    214.728668
4442.77    217.014450    221.540222
4444.24    213.296432    216.860260
4445.71    184.597168    185.855972
4447.18    141.049774    142.824341
4448.65    198.078903    203.071762
4450.12    206.480103    203.317917
4451.59    201.011475    193.833466
4453.06    195.362305    202.015823
4454.53    228.533646    224.879990
4456.00    234.757050    238.333817
4457.47    231.013153    233.696182
4458.93    186.354568    188.083115
4460.40    181.470840    171.208481
4461.87    218.469131    208.170258
4463.34    208.269073    198.331451
4464.81    219.675369    221.431458
4466.28    205.917587    203.234192
4467.75    183.586533    165.707550
4469.22    226.573975    217.786102
4470.69    249.819580    267.091949
4472.16    225.492264    234.593964
4473.63    220.842331    202.770737
4475.10    196.169937    181.940994
4476.57    240.117157    226.331909
4478.04    251.307648    258.189728
4479.51    231.376144    234.782990
4480.98    218.125839    223.917419
4482.45    213.892578    216.342285
4483.92    229.372849    234.033203
4485.39    242.714050    251.878540
4486.86    171.459763    178.765930
4488.33    218.264862    213.252991
4489.80    189.401260    191.871994
4491.27    172.345703    166.272064
4492.74    232.001068    236.186661
4494.21    226.517090    230.535172
4495.68    195.103317    199.226730
4497.15    242.781387    266.833557
4498.62    215.806488    208.041504
4500.09    215.500595    208.744827
4501.56    226.773987    211.295807
4503.03    219.220520    231.239990
4504.50    229.373734    239.612732
4505.97    212.847061    196.900208
4507.44    271.787170    254.490295
4508.91    275.375244    263.808380
4510.38    218.463440    210.581894
4511.85    200.227600    203.603058
4513.32    203.374329    208.713303
4514.79    210.530975    193.354141
4516.26    224.162094    216.993027
4517.73    251.792816    255.081482
4519.20    261.505951    264.562531
4520.67    236.534027    225.369553
4522.14    273.301483    269.358124
4523.61    258.989929    266.461639
4525.08    202.292679    207.316818
4526.55    221.793015    223.358063
4528.02    241.300323    238.030548
4529.49    262.941742    258.083984
4530.96    225.815704    214.982819
4532.43    252.605850    261.921967
4533.90    265.490845    269.709534
4535.37    232.544296    221.590881
4536.84    273.137817    269.031464
4538.31    275.763855    280.956451
4539.78    274.516937    277.653381
4541.25    268.117004    284.106476
4542.72    254.014221    261.330322
4544.19    238.313751    227.106277
4545.66    267.611359    270.101593
4547.13    250.537277    255.206314
4548.60    274.532745    277.451660
4550.07    313.927277    313.419067
4551.54    309.537537    312.129852
4553.01    324.174316    333.483887
4554.48    270.726837    268.835022
4555.95    246.081955    235.020355
4557.42    318.467529    309.305969
4558.89    311.604065    320.602020
4560.36    259.538544    260.307617
4561.83    278.750854    275.818756
4563.30    341.404846    356.988525
4564.77    292.054504    295.966431
4566.23    227.652390    212.423325
4567.70    285.610565    276.258087
4569.17    292.349243    286.462585
4570.64    247.686493    232.249435
4572.11    271.955261    268.112213
4573.58    247.081696    253.304367
4575.05    229.085358    229.459549
4576.52    285.687775    296.768951
4577.99    279.201599    272.682892
4579.46    285.268372    308.249512
4580.93    313.139008    330.656921
4582.40    258.755951    244.052811
4583.87    294.246246    298.704834
4585.34    343.310699    342.055908
4586.81    311.056915    293.197083
4588.28    274.629822    271.205780
4589.75    248.375519    248.255325
4591.22    320.284210    314.726166
4592.69    333.548981    329.877747
4594.16    287.883575    270.885254
4595.63    325.330353    292.868286
4597.10    290.952332    270.560577
4598.57    340.940735    335.075104
4600.04    370.640564    368.307587
4601.51    317.921783    317.221558
4602.98    278.201385    277.034424
4604.45    286.453217    280.260925
4605.92    317.233948    321.983276
4607.39    326.492493    331.480011
4608.86    342.919891    354.213837
4610.33    336.459259    331.036530
4611.80    312.045746    295.401978
4613.27    306.567566    310.939209
4614.74    313.889191    317.775574
4616.21    358.461426    350.391724
4617.68    370.952759    370.008148
4619.15    330.260132    335.592224
4620.62    299.387573    298.361023
4622.09    337.065765    341.342957
4623.56    364.868164    365.585083
4625.03    334.309509    333.993134
4626.50    329.443604    332.140961
4627.97    311.435913    312.745575
4629.44    327.993500    328.156586
4630.91    323.663208    328.380157
4632.38    340.632751    341.263824
4633.85    338.545227    331.243866
4635.32    294.491089    276.878021
4636.79    329.683929    318.952240
4638.26    327.916107    323.901489
4639.73    317.888855    309.280945
4641.20    256.368927    258.003601
4642.67    258.724854    266.052216
4644.14    265.253540    267.919037
4645.61    285.918488    280.503387
4647.08    266.282349    266.763794
4648.55    327.548370    339.294434
4650.02    339.874725    339.324799
4651.49    333.729797    331.381622
4652.96    333.307373    332.726410
4654.43    342.688965    342.419861
4655.90    363.096405    366.321594
4657.37    356.448242    352.810059
4658.84    346.583130    347.035065
4660.31    358.267517    359.459686
4661.78    341.781189    346.594604
4663.25    334.572784    341.461182
4664.72    332.041962    346.574707
4666.19    345.185822    349.469757
4667.66    346.510315    332.874542
4669.13    356.850983    348.671783
4670.60    374.209167    387.516418
4672.07    384.558746    396.290222
4673.53    380.213562    377.893494
4675.00    414.198608    441.655243
4676.47    408.684570    407.572998
4677.94    384.278900    380.288116
4679.41    304.163910    302.067810
4680.88    361.247040    352.455566
4682.35    398.133881    390.870178
4683.82    381.650665    381.591888
4685.29    395.852325    401.324738
4686.76    403.575836    412.329590
4688.23    362.705811    370.178345
4689.70    369.764008    370.718170
4691.17    376.313263    378.264496
4692.64    378.053192    385.070404
4694.11    327.617371    319.432404
4695.58    365.707184    360.230164
4697.05    370.898651    374.411682
4698.52    370.672516    380.707031
4699.99    345.080933    352.100037
4701.46    296.430389    299.033966
4702.93    402.888702    408.087982
4704.40    372.955963    372.395569
4705.87    357.192596    362.876678
4707.34    353.174744    367.426117
4708.81    413.610657    378.209503
4710.28    416.699768    412.211609
4711.75    359.929779    361.311615
4713.22    358.005371    351.896606
4714.69    352.908905    346.832977
4716.16    392.181305    404.990265
4717.63    379.618256    386.662567
4719.10    405.308167    399.389374
4720.57    393.878204    387.677582
4722.04    397.719696    403.023071
4723.51    364.445923    359.888214
4724.98    357.732910    345.639893
4726.45    438.387238    437.326477
4727.92    403.459015    393.637268
4729.39    401.480499    394.662842
4730.86    411.975800    421.639832
4732.33    424.110474    427.434875
4733.80    391.958984    381.917267
4735.27    381.819977    385.956268
4736.74    409.487091    421.029480
4738.21    467.400665    459.013306
4739.68    420.723633    409.149658
4741.15    375.007751    371.111755
4742.62    444.963745    447.084137
4744.09    397.458435    390.891388
4745.56    437.067535    434.981415
4747.03    433.481689    439.200317
4748.50    428.279877    419.918030
4749.97    417.839020    422.921967
4751.44    412.308533    418.898224
4752.91    418.321320    418.045959
4754.38    356.342468    330.199036
4755.85    360.734894    347.088745
4757.32    405.340637    423.326721
4758.79    360.442352    364.431122
4760.26    390.104004    402.207153
4761.73    394.218384    393.595856
4763.20    395.894531    397.192566
4764.67    394.167877    396.828552
4766.14    411.494324    399.302734
4767.61    404.582703    401.028809
4769.08    385.058594    389.873260
4770.55    375.549622    366.922760
4772.02    427.316162    396.080627
4773.49    451.111633    450.326874
4774.96    441.361237    443.857971
4776.43    401.715759    394.362610
4777.90    366.997009    367.287811
4779.37    413.103271    416.685455
4780.83    427.498627    422.713745
4782.30    403.414185    391.562622
4783.77    387.142731    386.794586
4785.24    368.798950    369.421570
4786.71    386.553894    402.022980
4788.18    351.123047    348.735199
4789.65    379.108398    379.790192
4791.12    405.421967    410.186798
4792.59    389.296295    376.501648
4794.06    409.431122    408.107269
4795.53    405.062073    412.384766
4797.00    398.841888    387.650696
4798.47    394.709656    394.691986
4799.94    353.889954    355.574036
4801.41    398.867828    403.011932
4802.88    398.044769    410.466431
4804.35    359.372375    375.981964
4805.82    414.145630    426.645416
4807.29    350.503510    354.339569
4808.76    412.503967    420.325592
4810.23    428.887878    425.414673
4811.70    417.119019    406.116821
4813.17    399.401093    400.899139
4814.64    386.269440    387.615387
4816.11    382.106293    398.741211
4817.58    386.779846    404.148712
4819.05    370.320465    357.073364
4820.52    390.514893    393.449097
4821.99    419.822662    417.887817
4823.46    422.614807    429.461182
4824.93    436.863861    441.829132
4826.40    471.326569    479.419037
4827.87    458.462341    456.042816
4829.34    437.687439    427.528412
4830.81    479.142883    461.624756
4832.28    490.313904    478.549225
4833.75    453.239655    454.495667
4835.22    399.157135    402.924225
4836.69    482.827271    496.377472
4838.16    480.771362    483.897858
4839.63    412.855072    412.382599
4841.10    428.403809    433.906677
4842.57    494.513794    490.936493
4844.04    464.894928    467.047699
4845.51    488.108154    490.960907
4846.98    447.075043    457.275452
4848.45    458.524506    449.085815
4849.92    471.028778    456.181305
4851.39    468.606628    471.123230
4852.86    426.716461    434.714264
4854.33    419.599274    418.104431
4855.80    494.033600    498.737274
4857.27    501.724670    500.361206
4858.74    503.663300    504.266693
4860.21    493.433777    482.791748
4861.68    513.294800    509.100586
4863.15    473.865479    465.268646
4864.62    438.965485    435.915283
4866.09    461.856873    456.568878
4867.56    589.926941    543.661682
4869.03    450.074341    446.811218
4870.50    442.475189    440.750977
4871.97    428.696838    435.141846
4873.44    481.230865    484.542206
4874.91    465.207001    465.663818
4876.38    503.196228    512.313904
4877.85    484.581238    469.400360
4879.32    431.784760    413.816986
4880.79    467.116791    470.411926
4882.26    490.589020    495.964600
4883.73    490.069122    494.268372
4885.20    441.472290    424.783600
4886.67    423.447601    421.657837
4888.13    459.553986    464.522034
4889.60    467.284698    471.970093
4891.07    479.857513    463.935852
4892.54    449.477295    458.460266
4894.01    439.398834    448.909882
4895.48    489.051178    492.923370
4896.95    529.607300    535.134521
4898.42    530.347351    530.052429
4899.89    492.589142    504.396942
4901.36    452.251099    456.287842
4902.83    456.253448    473.984528
4904.30    463.451141    493.700531
4905.77    454.548401    448.761444
4907.24    463.362885    459.512421
4908.71    481.900116    475.903076
4910.18    492.352936    493.252075
4911.65    518.867737    519.274658
4913.12    530.638977    535.566162
4914.59    520.371582    520.875549
4916.06    513.881775    522.989502
4917.53    538.987915    550.760376
4919.00    491.067505    486.754211
4920.47    517.979065    503.412781
4921.94    508.944611    504.308105
4923.41    500.237457    501.216034
4924.88    520.726379    529.644226
4926.35    504.319458    526.545410
4927.82    485.651855    493.207092
4929.29    530.979126    520.950806
4930.76    566.482910    567.365540
4932.23    488.893982    482.545410
4933.70    518.059082    507.855316
4935.17    536.116760    529.411743
4936.64    484.306396    476.292694
4938.11    521.806335    509.789948
4939.58    489.533936    488.932465
4941.05    492.952606    498.240875
4942.52    533.507690    524.612305
4943.99    539.939087    543.758362
4945.46    471.378418    481.950775
4946.93    468.806824    473.710632
4948.40    541.675049    540.020508
4949.87    522.037231    512.695923
4951.34    468.629639    460.061981
4952.81    488.259705    487.074402
4954.28    524.002686    526.309753
4955.75    505.426392    504.166718
4957.22    504.057343    514.983521
4958.69    494.669098    492.516907
4960.16    504.092285    499.376892
4961.63    535.892151    535.934509
4963.10    489.108185    492.959778
4964.57    499.438263    512.551025
4966.04    456.356323    459.558411
4967.51    504.163055    522.107178
4968.98    495.056885    508.111267
4970.45    490.915100    497.173889
4971.92    489.459747    488.099365
4973.39    502.158020    497.306213
4974.86    519.907715    517.420288
4976.33    463.410339    462.423584
4977.80    499.670776    490.239777
4979.27    446.311188    430.918304
4980.74    498.387634    490.587952
4982.21    495.220703    502.117615
4983.68    482.265137    490.260071
4985.15    493.758575    501.567474
4986.62    439.180237    442.868195
4988.09    458.717896    462.984985
4989.56    481.310547    466.061096
4991.03    460.707764    457.667114
4992.50    461.147614    460.194855
4993.97    468.871155    476.183258
4995.43    503.790100    503.279846
4996.90    549.643433    553.063416
4998.37    484.250702    476.686279
4999.84    492.437683    487.343903
5001.31    515.246887    515.151672
5002.78    477.141815    471.527283
5004.25    507.983795    508.144562
5005.72    516.888000    518.854980
5007.19    476.770630    480.690338
5008.66    465.504547    476.615356
5010.13    523.304077    520.586426
5011.60    542.893188    552.764648
5013.07    481.399323    470.256134
5014.54    530.750000    498.064911
5016.01    540.315857    524.950562
5017.48    555.746704    559.309082
5018.95    606.039734    608.769043
5020.42    581.527893    570.502136
5021.89    532.803589    542.175415
5023.36    511.667664    514.204956
5024.83    557.159607    552.701660
5026.30    591.684204    595.342407
5027.77    519.782166    515.160828
5029.24    563.337280    523.790405
5030.71    580.642761    569.448730
5032.18    507.403442    504.262817
5033.65    466.580475    507.560730
5035.12    560.980530    562.007874
5036.59    487.973022    494.115204
5038.06    528.490784    533.867004
5039.53    524.880249    527.754028
5041.00    532.948425    541.121277
5042.47    508.726685    504.008057
5043.94    497.858337    494.354034
5045.41    510.623383    509.409607
5046.88    531.233826    530.304382
5048.35    547.138977    544.747070
5049.82    575.254272    574.390320
5051.29    506.901276    520.708923
5052.76    567.979187    570.537476
5054.23    531.493286    525.254700
5055.70    514.547852    523.467224
5057.17    535.475952    547.237976
5058.64    520.078003    523.369629
5060.11    538.552429    556.386108
5061.58    564.025269    554.124512
5063.05    580.839111    578.748779
5064.52    611.294556    612.519958
5065.99    553.076050    542.610962
5067.46    582.242676    574.927002
5068.93    578.206970    564.123291
5070.40    594.249695    583.137146
5071.87    605.307556    607.102356
5073.34    581.403931    587.966614
5074.81    587.820923    586.299988
5076.28    549.161011    552.504456
5077.75    543.053772    548.002441
5079.22    607.769531    606.063049
5080.69    521.366028    517.931763
5082.16    516.830872    513.259094
5083.63    547.921082    550.592407
5085.10    493.769806    486.520782
5086.57    532.693176    518.056946
5088.04    545.071228    549.117004
5089.51    550.709717    556.737976
5090.98    592.454163    591.997742
5092.45    542.443604    543.093506
5093.92    552.617920    558.070374
5095.39    564.724548    559.461365
5096.86    546.465576    542.132019
5098.33    494.693695    492.950562
5099.80    530.078674    522.388000
5101.27    517.355042    525.836670
5102.73    491.262146    480.275604
5104.20    516.293701    507.877625
5105.67    544.869873    540.036011
5107.14    518.926514    524.842346
5108.61    520.650574    528.610474
5110.08    542.501404    550.596130
5111.55    553.476807    554.807129
5113.02    569.753052    572.238953
5114.49    577.268860    583.810852
5115.96    569.412231    568.324585
5117.43    503.684784    508.756989
5118.90    503.397156    491.749054
5120.37    509.214447    485.850861
5121.84    474.805420    471.919037
5123.31    481.922394    478.921448
5124.78    555.710205    552.411377
5126.25    480.766785    485.108002
5127.72    502.850647    501.659698
5129.19    528.598572    525.262878
5130.66    547.220398    553.729797
5132.13    530.513489    531.898254
5133.60    482.981201    478.533295
5135.07    549.889893    553.544678
5136.54    549.686707    536.272766
5138.01    506.170746    502.258453
5139.48    441.262817    475.107208
5140.95    496.428619    534.811401
5142.42    491.790863    499.182709
5143.89    486.106445    486.853027
5145.36    527.047058    523.937439
5146.83    518.065063    517.344604
5148.30    515.526978    515.278015
5149.77    491.329041    483.150513
5151.24    575.583984    578.248779
5152.71    548.910889    554.317261
5154.18    525.334351    519.776428
5155.65    528.088684    524.398315
5157.12    559.309021    559.228027
5158.59    490.835907    474.240051
5160.06    469.804596    462.333649
5161.53    500.207550    534.334412
5163.00    502.408752    505.485382
5164.47    515.106628    492.436554
5165.94    527.474854    522.894409
5167.41    537.983826    538.700378
5168.88    517.193054    527.010193
5170.35    520.062927    526.668274
5171.82    512.313538    512.790222
5173.29    534.803101    545.648682
5174.76    535.362671    532.920654
5176.23    556.190430    553.221069
5177.70    583.544556    591.775330
5179.17    528.627258    530.107239
5180.64    587.121521    592.299316
5182.11    566.367432    558.967041
5183.58    579.238525    587.855469
5185.05    554.630432    561.749268
5186.52    566.659058    563.038696
5187.99    519.421387    519.804749
5189.46    554.993347    556.933350
5190.93    556.462097    556.115479
5192.40    550.362610    557.198181
5193.87    583.453247    584.509216
5195.34    535.958191    543.002930
5196.81    510.955200    506.066772
5198.28    496.032684    500.805359
5199.75    537.377808    533.199585
5201.22    514.434814    525.085754
5202.69    508.842987    522.166626
5204.16    546.023865    538.747864
5205.63    606.903259    606.132813
5207.10    558.341309    556.650085
5208.57    545.530029    536.162903
5210.03    554.522095    542.922302
5211.50    511.827728    507.010529
5212.97    513.283203    529.958801
5214.44    546.337830    551.614075
5215.91    601.975586    591.283203
5217.38    600.921265    594.277222
5218.85    550.966675    551.105957
5220.32    597.974915    605.645020
5221.79    572.627319    586.203369
5223.26    524.964233    513.880920
5224.73    532.867859    527.136780
5226.20    514.262695    511.511230
5227.67    567.526367    572.653381
5229.14    508.639130    516.667358
5230.61    501.442505    493.028076
5232.08    523.456177    529.901611
5233.55    558.850952    575.215820
5235.02    555.313782    549.798340
5236.49    621.436157    620.674805
5237.96    533.687378    542.320496
5239.43    535.122681    549.639465
5240.90    543.468506    543.598633
5242.37    574.680908    578.268860
5243.84    540.549988    540.102173
5245.31    536.964844    543.065674
5246.78    550.825867    546.393372
5248.25    504.262451    495.935028
5249.72    519.066345    530.002441
5251.19    591.192139    586.235474
5252.66    550.364929    538.442810
5254.13    490.292419    494.838593
5255.60    528.252502    522.295166
5257.07    537.151489    529.900208
5258.54    514.522644    513.754028
5260.01    554.860779    541.874268
5261.48    543.686523    545.082214
5262.95    588.842957    592.290161
5264.42    613.528442    612.987305
5265.89    543.719238    545.470276
5267.36    549.120728    554.327209
5268.83    505.780884    505.656433
5270.30    509.108398    508.366272
5271.77    503.110443    500.222687
5273.24    502.899323    523.338440
5274.71    507.214630    522.173340
5276.18    505.850098    509.656860
5277.65    576.012451    580.796631
5279.12    516.159424    515.177612
5280.59    471.900238    459.039185
5282.06    548.526611    543.740051
5283.53    593.337830    592.182800
5285.00    508.468506    507.934174
5286.47    526.799072    514.738159
5287.94    521.126770    529.126526
5289.41    486.479401    476.173584
5290.88    501.153778    502.368805
5292.35    396.485626    452.403656
5293.82    499.393311    516.030151
5295.29    447.575714    447.706024
5296.76    431.417572    436.006714
5298.23    413.092255    403.623505
5299.70    404.497223    394.418732
5301.17    397.294952    405.758148
5302.64    421.504456    416.469666
5304.11    473.315002    483.236847
5305.58    497.136536    501.056183
5307.05    454.681305    448.943359
5308.52    497.283020    488.687897
5309.99    489.285461    494.376892
5311.46    488.478760    491.183746
5312.93    505.201996    508.896362
5314.40    512.338318    518.450745
5315.87    528.539612    527.843201
5317.33    510.939240    497.363831
5318.80    520.121765    514.948914
5320.27    531.040039    518.532715
5321.74    492.835327    496.314056
5323.21    526.866882    524.984985
5324.68    581.192871    586.367249
5326.15    561.361389    563.383240
5327.62    578.205261    583.893677
5329.09    564.304993    559.229309
5330.56    565.615234    573.709351
5332.03    565.178833    569.692749
5333.50    552.894836    546.578491
5334.97    557.204834    550.613770
5336.44    578.912292    583.312805
5337.91    556.078979    579.660400
5339.38    580.863647    581.844299
5340.85    588.714844    589.881592
5342.32    633.189880    630.334961
5343.79    580.851685    572.844177
5345.26    589.245361    594.085205
5346.73    637.000488    651.033630
5348.20    633.173096    645.892639
5349.67    586.673096    579.758972
5351.14    583.881042    573.266479
5352.61    592.382813    580.654297
5354.08    608.011047    606.389282
5355.55    544.336243    548.364197
5357.02    558.617004    547.148743
5358.49    602.927734    604.549988
5359.96    663.782288    672.843994
5361.43    612.993835    611.588806
5362.90    588.924133    582.950867
5364.37    653.083008    644.311890
5365.84    642.738708    630.008972
5367.31    641.672424    639.687927
5368.78    674.566772    672.500916
5370.25    647.556213    647.368835
5371.72    629.143311    627.279541
5373.19    653.945190    651.988037
5374.66    661.725098    655.863831
5376.13    629.567749    633.119080
5377.60    673.319336    669.979553
5379.07    671.333069    680.232422
5380.54    647.635742    652.551270
5382.01    636.698059    634.713928
5383.48    631.462585    628.192627
5384.95    682.606323    687.060608
5386.42    708.782776    699.854797
5387.89    690.750793    674.298828
5389.36    631.570251    629.635803
5390.83    640.340027    644.172546
5392.30    620.586975    619.440613
5393.77    574.389587    578.949829
5395.24    578.389343    569.781189
5396.71    540.465027    540.870422
5398.18    563.175415    560.649963
5399.65    559.871033    559.306335
5401.12    586.128418    580.853088
5402.59    582.278870    572.188599
5404.06    622.319092    629.245483
5405.53    665.130981    659.552979
5407.00    604.624207    597.696838
5408.47    596.313965    586.724731
5409.94    630.844177    632.723206
5411.41    677.085754    684.560608
5412.88    635.508728    632.033752
5414.35    684.800354    693.116638
5415.82    720.277466    725.301208
5417.29    728.735107    722.852783
5418.76    704.456421    697.670410
5420.23    666.387268    657.682190
5421.70    652.058411    643.865356
5423.17    667.901306    660.231995
5424.63    668.697876    657.973694
5426.10    677.755127    676.428650
5427.57    686.091492    686.299927
5429.04    680.368164    681.959351
5430.51    727.712830    734.984985
5431.98    757.623352    759.170837
5433.45    731.879211    731.400757
5434.92    696.946777    692.157532
5436.39    740.947388    738.506836
5437.86    734.415833    734.178467
5439.33    724.781006    718.189819
5440.80    774.738220    783.997009
5442.27    771.286926    795.268799
5443.74    746.521606    748.448242
5445.21    707.950256    692.697144
5446.68    694.406128    683.199890
5448.15    735.018250    729.477478
5449.62    729.566406    729.747314
5451.09    733.622253    736.492920
5452.56    677.647705    685.156067
5454.03    673.303955    676.328918
5455.50    708.424133    707.636841
5456.97    622.747864    619.039368
5458.44    657.049927    656.495544
5459.91    680.046082    671.596436
5461.38    612.408630    604.721558
5462.85    665.813782    686.920715
5464.32    684.827454    698.518433
5465.79    679.299133    691.357605
5467.26    714.999634    720.961548
5468.73    722.668091    720.085144
5470.20    696.077271    703.281128
5471.67    690.220154    688.328674
5473.14    693.820129    686.087463
5474.61    667.356079    663.037292
5476.08    716.303101    718.948486
5477.55    687.678040    687.831177
5479.02    665.297058    669.591431
5480.49    734.720032    742.539490
5481.96    732.096191    729.777039
5483.43    723.627319    727.143982
5484.90    739.943359    753.331909
5486.37    769.297852    764.542419
5487.84    775.829224    767.022400
5489.31    744.296936    746.381836
5490.78    754.208435    750.158752
5492.25    758.030640    755.210449
5493.72    706.416321    703.380066
5495.19    744.302124    736.786499
5496.66    778.809937    774.094299
5498.13    746.260132    747.387390
5499.60    728.931335    741.188965
5501.07    723.373291    738.766785
5502.54    717.539246    721.958679
5504.01    715.770813    712.833435
5505.48    740.240662    741.457581
5506.95    753.682495    750.887390
5508.42    671.629333    666.562500
5509.89    678.783142    677.417969
5511.36    690.629639    703.310059
5512.83    724.214844    741.752441
5514.30    755.991821    744.867004
5515.77    702.625854    702.687256
5517.24    701.004700    697.664795
5518.71    737.676025    736.990723
5520.18    701.227905    706.038818
5521.65    706.401001    700.587585
5523.12    705.357788    698.272278
5524.59    671.968323    666.988159
5526.06    669.323242    657.870728
5527.53    611.009277    602.961365
5529.00    632.027283    630.865417
5530.47    678.043701    680.279785
5531.93    673.674500    669.714600
5533.40    665.675476    658.066956
5534.87    724.407593    735.160034
5536.34    695.896362    695.365601
5537.81    647.799011    641.609985
5539.28    697.989563    700.132385
5540.75    640.914734    643.588989
5542.22    664.607361    663.224121
5543.69    697.275024    703.420288
5545.16    712.122253    706.431030
5546.63    697.155762    709.323120
5548.10    733.007141    741.953247
5549.57    707.003784    686.958740
5551.04    701.860535    667.325928
5552.51    719.827759    731.927490
5553.98    730.229248    741.489502
5555.45    740.019287    736.511719
5556.92    727.826233    732.141113
5558.39    722.987000    729.906921
5559.86    666.161987    678.822327
5561.33    688.101135    720.127869
5562.80    708.736450    714.506531
5564.27    753.717224    754.038635
5565.74    761.966553    760.124451
5567.21    713.652405    710.735413
5568.68    747.657288    747.369507
5570.15    711.545166    712.219116
5571.62    761.021545    758.435364
5573.09    763.744141    752.115906
5574.56    724.635376    738.898499
5576.03    699.317322    719.016724
5577.50    724.525330    748.000549
5578.97    822.533081    856.548035
5580.44    773.401428    803.100403
5581.91    680.286438    668.800354
5583.38    736.480225    729.158752
5584.85    771.090088    761.709656
5586.32    702.465088    711.529480
5587.79    710.996582    713.531006
5589.26    719.906921    726.392822
5590.73    688.437012    685.207397
5592.20    706.614502    708.022705
5593.67    650.400085    649.378967
5595.14    660.200745    669.018494
5596.61    693.783630    689.180664
5598.08    734.450745    726.247681
5599.55    720.327026    731.810913
5601.02    738.242310    747.424133
5602.49    773.542114    788.410217
5603.96    723.856262    722.719177
5605.43    675.086060    675.330017
5606.90    667.346802    657.831787
5608.37    672.207153    662.319092
5609.84    729.857422    734.796082
5611.31    706.190979    698.041443
5612.78    681.709351    682.921570
5614.25    680.224182    683.380554
5615.72    690.851379    679.083496
5617.19    721.507385    733.487793
5618.66    691.284363    699.747375
5620.13    687.882324    686.468872
5621.60    747.985901    743.705688
5623.07    745.715698    748.361755
5624.54    684.267822    691.734131
5626.01    673.662354    681.192078
5627.48    685.108948    691.036682
5628.95    695.362000    701.391418
5630.42    710.474792    714.645691
5631.89    739.355835    748.081543
5633.36    764.820251    770.932861
5634.83    744.487061    747.737549
5636.30    722.522705    725.468567
5637.77    687.784790    692.622192
5639.23    727.077942    721.700134
5640.70    758.586121    761.937439
5642.17    714.727173    730.991638
5643.64    771.835999    784.157288
5645.11    710.534058    708.238586
5646.58    709.775452    704.549561
5648.05    685.179321    683.152588
5649.52    664.535767    665.930969
5650.99    656.107971    655.085815
5652.46    700.610291    701.943054
5653.93    755.086487    755.695374
5655.40    744.189941    731.997009
5656.87    682.550537    678.842957
5658.34    658.735168    645.473633
5659.81    738.139709    741.054382
5661.28    740.112305    749.235657
5662.75    727.945313    737.146118
5664.22    727.645996    737.880493
5665.69    717.440918    718.389587
5667.16    717.560120    715.050171
5668.63    719.199646    716.384583
5670.10    731.837280    724.746643
5671.57    704.105713    701.096497
5673.04    700.085327    697.410034
5674.51    728.086243    721.362488
5675.98    748.420898    743.609741
5677.45    696.428955    728.365540
5678.92    721.859863    722.323669
5680.39    727.307678    718.561218
5681.86    718.202759    707.075806
5683.33    723.128052    709.191528
5684.80    809.173218    814.276428
5686.27    813.288818    799.202271
5687.74    764.117126    764.496521
5689.21    750.331970    768.316528
5690.68    804.531433    811.068726
5692.15    765.938354    756.888245
5693.62    751.476624    720.006409
5695.09    771.734619    758.697327
5696.56    713.953735    710.509521
5698.03    734.617737    731.455078
5699.50    742.481445    743.899414
5700.97    709.784241    711.036682
5702.44    731.355896    731.102539
5703.91    689.101013    691.445374
5705.38    681.723145    694.403503
5706.85    701.887756    758.334656
5708.32    733.225647    738.864563
5709.79    718.626831    742.583008
5711.26    717.957642    747.085632
5712.73    720.718018    714.835022
5714.20    724.901367    714.560486
5715.67    742.979919    737.195984
5717.14    696.858765    689.546875
5718.61    733.113403    732.238525
5720.08    727.104004    729.986328
5721.55    683.358704    684.886230
5723.02    729.660034    735.984863
5724.49    738.174377    737.801880
5725.96    703.923401    701.689758
5727.43    686.769653    686.794678
5728.90    686.882202    673.795044
5730.37    674.541504    670.097046
5731.84    690.561707    699.622437
5733.31    722.536865    721.878723
5734.78    713.108398    710.598511
5736.25    702.452332    713.632263
5737.72    684.856995    685.815186
5739.19    705.244202    709.597351
5740.66    710.861389    718.197937
5742.13    710.207642    701.826721
5743.60    765.077332    746.660034
5745.07    798.527161    787.818481
5746.53    761.323792    760.157104
5748.00    698.568420    697.030945
5749.47    717.306519    715.353394
5750.94    741.674561    722.294067
5752.41    736.929626    716.680847
5753.88    742.406921    745.149475
5755.35    719.423584    721.714905
5756.82    727.147705    723.954285
5758.29    708.342102    709.494873
5759.76    721.173218    723.863892
5761.23    730.446716    735.265259
5762.70    706.841553    709.455750
5764.17    724.675720    721.791382
5765.64    731.981018    733.284790
5767.11    762.326843    770.123047
5768.58    727.404236    729.094910
5770.05    741.485107    731.112366
5771.52    766.134766    760.554688
5772.99    721.216248    721.243408
5774.46    722.369812    723.485779
5775.93    722.989380    715.521179
5777.40    750.086914    737.435974
5778.87    776.139954    769.029846
5780.34    725.003113    716.038635
5781.81    722.186462    719.779724
5783.28    748.873169    754.213013
5784.75    768.651550    773.107300
5786.22    835.943848    837.626648
5787.69    781.999146    782.018250
5789.16    735.762146    734.097534
5790.63    761.112305    754.469604
5792.10    727.579529    766.150879
5793.57    704.962036    766.859253
5795.04    742.765015    749.751831
5796.51    716.507568    713.515625
5797.98    709.696167    698.981323
5799.45    727.153992    739.808960
5800.92    756.578064    758.910034
5802.39    702.402100    698.506104
5803.86    705.033630    707.781555
5805.33    767.927673    769.406372
5806.80    730.727539    727.525818
5808.27    749.819763    750.975708
5809.74    756.487793    756.979004
5811.21    757.823425    747.579712
5812.68    765.576782    763.921631
5814.15    820.834229    820.046265
5815.62    828.908569    828.416565
5817.09    784.370117    786.700378
5818.56    744.947876    734.095032
5820.03    774.581970    763.061218
5821.50    768.162476    758.732483
5822.97    747.805908    748.180664
5824.44    738.098633    759.449585
5825.91    775.540833    780.149109
5827.38    761.292480    763.667664
5828.85    774.083252    766.046021
5830.32    796.583801    786.905273
5831.79    791.961182    781.104126
5833.26    774.733032    774.243103
5834.73    777.573547    768.950500
5836.20    780.763245    782.044495
5837.67    796.707153    801.787354
5839.14    755.325623    747.268616
5840.61    801.545715    781.603760
5842.08    805.719666    813.060547
5843.55    730.721252    742.762756
5845.02    706.829285    704.808594
5846.49    757.052429    757.358093
5847.96    733.236389    733.786133
5849.43    727.103210    734.265503
5850.90    786.680725    790.881287
5852.36    761.274658    754.180847
5853.83    713.126282    735.345886
5855.30    744.815125    785.568115
5856.77    764.369812    754.024780
5858.24    812.679138    813.395813
5859.71    810.233154    818.419189
5861.18    828.465088    832.224670
5862.65    808.561096    803.090027
5864.12    827.137756    833.069885
5865.59    821.199158    823.845276
5867.06    805.635986    791.718018
5868.53    821.230774    820.157410
5870.00    810.206360    809.152954
5871.47    814.636902    803.532898
5872.94    760.080017    761.140381
5874.41    771.630981    761.627258
5875.88    846.549377    845.015320
5877.35    799.545654    829.280884
5878.82    834.220459    847.881409
5880.29    830.119263    885.279541
5881.76    854.386780    849.208557
5883.23    841.953430    839.637817
5884.70    839.551758    838.875671
5886.17    869.023865    871.527954
5887.64    919.746155    924.862000
5889.11    832.745728    833.721985
5890.58    755.747070    752.074158
5892.05    758.688477    747.440979
5893.52    768.695679    748.075439
5894.99    804.666016    807.587219
5896.46    729.201660    748.540161
5897.93    707.309570    694.790161
5899.40    757.154602    762.185791
5900.87    779.232239    773.244324
5902.34    809.626160    815.630310
5903.81    743.267700    738.563599
5905.28    764.085144    764.605103
5906.75    809.297363    805.157227
5908.22    830.645935    836.279724
5909.69    869.250793    866.046509
5911.16    828.444763    829.678589
5912.63    840.047974    839.803894
5914.10    836.421570    832.400818
5915.57    865.137512    869.045410
5917.04    835.608887    841.981750
5918.51    816.686646    824.438110
5919.98    801.801453    806.494629
5921.45    765.943420    769.336365
5922.92    751.022644    746.876892
5924.39    748.072144    758.265930
5925.86    764.876343    765.049377
5927.33    719.318359    713.522339
5928.80    796.207336    787.859497
5930.27    827.434814    829.225586
5931.74    806.955505    807.778442
5933.21    796.887329    798.947144
5934.68    818.793030    819.071838
5936.15    803.224976    799.605042
5937.62    835.732117    842.442261
5939.09    820.373901    830.260071
5940.56    816.038818    816.295410
5942.03    815.699646    826.743469
5943.50    838.198120    819.817505
5944.97    793.117310    795.057617
5946.44    855.724304    856.983887
5947.91    812.858948    821.593689
5949.38    863.410339    859.301025
5950.85    844.162170    847.885864
5952.32    855.278931    855.211548
5953.79    807.934631    817.377563
5955.26    828.791382    838.710754
5956.73    813.317749    810.862976
5958.20    819.916077    801.109375
5959.66    798.334229    854.126038
5961.13    820.276001    889.833923
5962.60    811.050659    820.500793
5964.07    803.113342    798.132690
5965.54    822.803162    839.383362
5967.01    809.500854    810.289246
5968.48    827.714722    831.863525
5969.95    831.744385    837.267456
5971.42    830.401978    821.147644
5972.89    839.301575    834.515137
5974.36    839.563171    843.658447
5975.83    812.444275    804.862427
5977.30    862.004578    846.617188
5978.77    838.617432    831.218384
5980.24    803.341736    804.615601
5981.71    825.453979    831.727478
5983.18    887.665894    890.139893
5984.65    879.177551    872.133118
5986.12    801.861389    805.946655
5987.59    831.683533    858.008789
5989.06    874.060120    895.518372
5990.53    842.023621    838.518127
5992.00    829.710876    828.925232
5993.47    825.004395    830.957031
5994.94    834.605347    841.892517
5996.41    821.765137    823.779297
5997.88    788.245483    782.132568
5999.35    765.494385    766.807556
6000.82    779.370117    788.060852
6002.29    783.999023    787.934814
6003.76    780.842163    781.643188
6005.23    804.993958    796.172913
6006.70    810.626770    806.503967
6008.17    806.895630    817.593750
6009.64    834.211426    838.515381
6011.11    816.166199    823.751831
6012.58    795.648682    794.709717
6014.05    801.470825    798.677917
6015.52    809.200745    808.849976
6016.99    817.170898    820.321899
6018.46    849.349182    853.492493
6019.93    837.847778    837.532104
6021.40    782.972534    792.828125
6022.87    793.024048    801.745483
6024.34    753.074646    757.797729
6025.81    698.543884    695.336914
6027.28    710.736023    702.205872
6028.75    657.739014    655.053833
6030.22    618.688538    623.403137
6031.69    665.898132    666.926270
6033.16    616.668457    614.670471
6034.63    610.440247    598.063538
6036.10    612.391052    612.666260
6037.57    584.821655    602.269348
6039.04    578.717651    579.072388
6040.51    582.892700    576.129028
6041.98    637.852966    642.258789
6043.45    646.061523    655.972168
6044.92    671.709167    679.921997
6046.39    700.225647    702.258240
6047.86    726.291138    731.232605
6049.33    725.630188    732.882935
6050.80    723.870667    736.102051
6052.27    727.929016    737.979248
6053.74    794.235046    791.789124
6055.21    761.371704    768.876160
6056.68    746.948975    747.853699
6058.15    760.739746    762.586426
6059.62    740.097473    744.607849
6061.09    790.990906    792.309448
6062.56    801.582397    801.287964
6064.03    844.178467    842.452881
6065.50    845.806335    845.005127
6066.96    796.197693    796.394104
6068.43    809.651062    809.464355
6069.90    790.972717    786.873047
6071.37    819.166504    817.609192
6072.84    822.783508    821.963135
6074.31    771.121460    765.448059
6075.78    757.467346    754.514954
6077.25    796.368286    801.433655
6078.72    791.043091    793.871948
6080.19    794.405579    803.318481
6081.66    816.791992    817.070435
6083.13    826.822693    830.165100
6084.60    857.000549    866.555481
6086.07    874.465637    881.366760
6087.54    841.169922    837.839661
6089.01    860.039490    846.706177
6090.48    838.149048    845.454529
6091.95    843.209045    846.215027
6093.42    795.535950    799.406006
6094.89    825.169250    823.654724
6096.36    840.815247    841.895935
6097.83    813.292358    822.903442
6099.30    789.193298    797.162903
6100.77    808.556641    800.999023
6102.24    849.867981    851.397888
6103.71    790.896423    798.135742
6105.18    799.459656    807.464417
6106.65    852.755981    857.702881
6108.12    837.273254    835.857727
6109.59    822.285034    828.679016
6111.06    795.278870    787.738037
6112.53    895.151428    907.504883
6114.00    858.870605    863.261108
6115.47    821.314819    827.564392
6116.94    791.618774    791.292175
6118.41    776.293213    777.311829
6119.88    849.145996    840.213379
6121.35    795.107971    788.216797
6122.82    832.161072    826.656433
6124.29    875.235596    869.735413
6125.76    799.601685    800.510803
6127.23    830.165344    844.565125
6128.70    778.364136    783.662415
6130.17    829.424866    827.972290
6131.64    773.867371    773.668213
6133.11    803.487366    804.751892
6134.58    831.997253    836.593323
6136.05    821.085754    816.516174
6137.52    805.652954    805.464050
6138.99    858.106506    862.636841
6140.46    792.132202    829.293030
6141.93    798.665710    808.076660
6143.40    847.537048    845.991577
6144.87    863.611267    866.611206
6146.34    872.483215    864.521118
6147.81    775.218384    786.269836
6149.28    811.703247    805.585938
6150.75    820.339539    822.315002
6152.22    785.239136    782.766296
6153.69    829.782043    825.277710
6155.16    831.405457    823.990173
6156.63    867.667725    866.710144
6158.10    838.208130    838.584473
6159.57    834.076294    840.014587
6161.04    838.301331    849.895691
6162.51    865.266235    864.892029
6163.98    814.536621    817.101746
6165.45    841.146118    831.153870
6166.92    834.651917    837.814453
6168.39    816.962097    827.378967
6169.86    803.007629    809.575317
6171.33    797.495605    789.235596
6172.80    845.898254    838.215698
6174.26    870.055481    881.212524
6175.73    813.645020    818.663574
6177.20    840.041687    839.237061
6178.67    848.160522    838.685913
6180.14    865.234619    856.216003
6181.61    882.278687    881.252136
6183.08    898.484436    899.740723
6184.55    911.322937    908.607239
6186.02    874.943359    864.717163
6187.49    905.103271    903.009155
6188.96    856.826416    854.628906
6190.43    873.603638    873.247925
6191.90    942.143372    948.294922
6193.37    929.120605    928.558838
6194.84    888.293762    896.981934
6196.31    890.188171    883.679016
6197.78    901.239502    898.881409
6199.25    906.638428    901.307556
6200.72    900.383484    881.182495
6202.19    862.668579    851.305969
6203.66    873.350769    875.073181
6205.13    889.183472    885.606628
6206.60    856.526794    856.355652
6208.07    860.365662    861.987244
6209.54    883.187988    884.968384
6211.01    849.925659    840.683594
6212.48    856.559875    853.810608
6213.95    901.808716    908.237732
6215.42    888.600647    880.094971
6216.89    887.629272    869.418274
6218.36    861.711731    854.767029
6219.83    896.967407    902.707642
6221.30    880.001709    872.602356
6222.77    892.503235    888.503784
6224.24    895.513184    893.628784
6225.71    864.707397    867.057922
6227.18    882.584229    883.951782
6228.65    888.913818    883.998840
6230.12    870.780701    872.761841
6231.59    877.743225    880.113342
6233.06    838.573364    835.704224
6234.53    860.272949    856.891724
6236.00    912.195007    911.193298
6237.47    846.679565    838.550232
6238.94    799.866699    791.374939
6240.41    842.630554    833.558899
6241.88    819.939392    815.957092
6243.35    824.369202    820.977722
6244.82    882.296753    869.943481
6246.29    840.206177    835.843750
6247.76    841.422180    847.308960
6249.23    847.444702    850.095215
6250.70    837.781921    839.946411
6252.17    862.816284    862.298279
6253.64    847.317688    857.763062
6255.11    838.954163    862.006958
6256.58    832.665466    834.734741
6258.05    835.249268    844.184692
6259.52    880.968811    877.628296
6260.99    842.975952    837.478149
6262.46    851.485229    863.954041
6263.93    900.763916    898.481995
6265.40    881.553223    877.360291
6266.87    846.728821    859.905884
6268.34    853.224976    879.935547
6269.81    872.075134    860.467651
6271.28    867.767029    846.247131
6272.75    860.565552    872.546875
6274.22    877.002563    876.892212
6275.69    810.115784    805.039490
6277.16    814.347412    808.069946
6278.63    814.867737    816.571350
6280.10    796.267456    798.085632
6281.56    771.471313    763.255432
6283.03    814.363647    814.393372
6284.50    909.235168    902.262939
6285.97    897.830750    880.433289
6287.44    814.144043    809.298035
6288.91    869.654297    863.779480
6290.38    861.763184    862.032227
6291.85    822.216492    818.835022
6293.32    835.675842    823.369202
6294.79    834.244019    840.692017
6296.26    840.139648    847.881287
6297.73    870.310547    881.954224
6299.20    869.443481    870.852234
6300.67    825.930237    830.483032
6302.14    804.284668    807.838501
6303.61    853.998718    857.416809
6305.08    816.109375    808.472107
6306.55    853.406616    852.731873
6308.02    828.277100    828.599304
6309.49    713.247803    703.826172
6310.96    720.835999    719.801880
6312.43    761.376587    765.144104
6313.90    789.955139    794.549133
6315.37    794.600525    790.403992
6316.84    785.610596    774.500793
6318.31    803.308044    811.143555
6319.78    786.719421    822.073853
6321.25    787.194885    790.809387
6322.72    820.599182    812.350952
6324.19    857.051270    853.155640
6325.66    843.217285    851.184082
6327.13    823.338196    830.039124
6328.60    790.688293    793.303345
6330.07    844.818726    845.913513
6331.54    828.754761    830.486572
6333.01    817.380981    804.196167
6334.48    789.165771    779.737244
6335.95    754.699890    743.123169
6337.42    801.307983    799.210999
6338.89    805.588501    817.610291
6340.36    809.215393    809.283447
6341.83    778.805847    767.115723
6343.30    786.751038    775.200562
6344.77    841.006714    837.793762
6346.24    773.802307    745.722351
6347.71    766.369446    756.951904
6349.18    840.937927    850.585388
6350.65    855.943970    855.843262
6352.12    858.547852    853.554260
6353.59    879.315125    868.206970
6355.06    864.347778    866.638550
6356.53    843.545044    855.928467
6358.00    845.446716    848.376404
6359.47    789.739746    800.690063
6360.94    838.607300    844.897095
6362.41    804.280212    807.648071
6363.88    848.379944    856.315125
6365.35    793.363953    790.275696
6366.82    779.329773    775.300171
6368.29    765.260620    769.219910
6369.76    787.060730    801.830933
6371.23    773.278259    780.271606
6372.70    766.160828    769.008301
6374.17    775.437866    765.871643
6375.64    765.780823    764.513611
6377.11    790.527649    791.856689
6378.58    756.387817    756.061523
6380.05    808.806824    815.687378
6381.52    807.238770    809.730164
6382.99    791.072571    785.820618
6384.46    796.627747    789.172058
6385.93    793.081177    787.749634
6387.40    872.592102    875.869507
6388.86    841.968262    851.761536
6390.33    827.426880    819.881287
6391.80    806.621094    803.328064
6393.27    765.397400    768.382935
6394.74    761.716919    761.571289
6396.21    781.050842    770.968628
6397.68    837.863342    837.916687
6399.15    839.515259    840.918274
6400.62    820.628235    819.761169
6402.09    769.491272    779.312744
6403.56    766.741882    767.024780
6405.03    806.405457    801.529541
6406.50    805.354675    795.240356
6407.97    790.706970    789.509277
6409.44    764.699158    761.391846
6410.91    780.971619    762.916748
6412.38    763.751770    808.044128
6413.85    713.126343    735.071289
6415.32    755.425964    765.821960
6416.79    787.057800    792.033081
6418.26    788.243042    776.017822
6419.73    851.851685    853.069946
6421.20    865.810364    866.429077
6422.67    891.206848    897.461731
6424.14    901.334106    904.823792
6425.61    829.432617    827.559631
6427.08    849.535339    844.219543
6428.55    851.534241    847.172302
6430.02    802.654053    817.747131
6431.49    840.122314    853.537781
6432.96    842.924927    842.279358
6434.43    833.999329    829.518188
6435.90    864.659119    875.346191
6437.37    832.621643    831.076721
6438.84    854.148315    846.598816
6440.31    858.274902    870.044067
6441.78    843.241333    838.646240
6443.25    888.392761    887.266235
6444.72    879.941895    874.552063
6446.19    852.599304    844.862732
6447.66    864.601501    868.771118
6449.13    856.325256    861.322571
6450.60    808.643616    803.270264
6452.07    835.073303    822.955383
6453.54    847.256042    843.451294
6455.01    815.915955    821.806458
6456.48    882.614929    889.357910
6457.95    883.831116    885.095581
6459.42    858.102722    859.547729
6460.89    841.622986    835.600342
6462.36    832.899353    831.015320
6463.83    853.494873    857.319641
6465.30    834.913330    834.411133
6466.77    832.358521    837.382507
6468.24    848.684448    848.641785
6469.71    855.819397    841.965942
6471.18    823.049744    822.686646
6472.65    843.500793    843.208130
6474.12    867.466125    859.600952
6475.59    851.778503    865.709900
6477.06    864.247498    871.364929
6478.53    868.923584    865.368347
6480.00    858.317932    863.916016
6481.47    888.664978    890.814941
6482.94    913.824707    905.591736
6484.41    850.286377    852.278320
6485.88    843.410156    841.373535
6487.35    894.661499    895.391602
6488.82    840.739380    843.681885
6490.29    865.024353    869.480957
6491.76    878.985779    872.317017
6493.23    873.867065    861.667358
6494.70    928.005554    928.040344
6496.16    906.623413    906.116699
6497.63    876.114441    876.453186
6499.10    909.930237    907.891052
6500.57    928.550598    935.078613
6502.04    856.915283    857.063293
6503.51    830.161255    829.072021
6504.98    882.350159    890.163147
6506.45    881.812195    887.181641
6507.92    904.569031    906.505981
6509.39    858.506287    854.362305
6510.86    875.239136    864.442017
6512.33    855.252991    857.112610
6513.80    849.801025    851.007874
6515.27    869.450989    866.853333
6516.74    833.240112    843.504822
6518.21    852.903198    862.378174
6519.68    905.842224    900.039551
6521.15    871.410156    871.119934
6522.62    884.753418    890.346863
6524.09    843.698486    840.995422
6525.56    840.022095    842.881775
6527.03    917.905823    917.949280
6528.50    942.877991    943.013428
6529.97    899.230957    884.628845
6531.44    904.920410    912.422913
6532.91    942.574341    948.481445
6534.38    963.494629    958.854736
6535.85    881.426758    885.536865
6537.32    875.501465    876.670288
6538.79    897.510132    900.767090
6540.26    893.691345    897.115662
6541.73    888.530579    892.688782
6543.20    939.576904    932.992859
6544.67    955.732788    951.114685
6546.14    926.663574    922.252258
6547.61    904.907104    905.816406
6549.08    881.240601    883.667908
6550.55    893.271301    905.438965
6552.02    859.714172    863.333130
6553.49    913.070557    917.756348
6554.96    904.838501    911.114868
6556.43    888.400635    897.358093
6557.90    885.983032    898.869263
6559.37    918.273804    929.861023
6560.84    888.715393    891.404236
6562.31    918.412659    914.053406
6563.78    925.854309    929.383362
6565.25    941.412537    943.822144
6566.72    903.211792    912.282288
6568.19    872.046387    878.973938
6569.66    869.634705    873.739075
6571.13    840.325134    856.870361
6572.60    936.265198    937.379333
6574.07    947.224609    929.628052
6575.54    913.086304    905.034546
6577.01    953.114685    964.884705
6578.48    920.995117    915.961731
6579.95    868.240417    872.431274
6581.42    915.310120    916.828491
6582.89    903.416016    941.156616
6584.36    910.599243    918.123291
6585.83    867.105347    867.265442
6587.30    882.965210    884.690857
6588.77    933.548462    932.636658
6590.24    904.109131    905.465149
6591.71    909.342834    914.144592
6593.18    936.746155    940.864868
6594.65    912.073120    919.323059
6596.12    911.483459    921.898010
6597.59    934.255493    940.630432
6599.06    914.725769    919.019714
6600.53    893.989929    897.851624
6602.00    895.864563    893.808716
6603.46    889.920898    890.923706
6604.93    918.286438    910.709656
6606.40    907.539551    910.406921
6607.87    906.641479    899.113831
6609.34    870.949036    853.641541
6610.81    877.135376    880.016418
6612.28    853.667786    854.092468
6613.75    906.660706    904.035461
6615.22    932.003479    940.761963
6616.69    911.850220    909.074951
6618.16    919.402832    918.695007
6619.63    943.827637    951.165710
6621.10    948.833008    953.086792
6622.57    938.468628    942.844116
6624.04    941.103271    949.566223
6625.51    925.127930    916.727112
6626.98    949.458069    948.214722
6628.45    893.277161    899.311462
6629.92    897.815369    895.931152
6631.39    895.325378    895.737610
6632.86    890.181580    890.379089
6634.33    909.719543    904.101013
6635.80    890.113403    897.007324
6637.27    895.665161    904.370972
6638.74    950.714172    943.917847
6640.21    911.133362    905.363159
6641.68    938.826904    933.529724
6643.15    921.075439    915.601990
6644.62    893.173767    904.821045
6646.09    922.659851    921.095520
6647.56    875.609619    873.906006
6649.03    867.141541    868.956787
6650.50    900.492371    902.971558
6651.97    836.873718    834.180298
6653.44    797.591675    789.734985
6654.91    826.617920    823.725037
6656.38    895.116638    896.192139
6657.85    923.118896    917.698059
6659.32    883.898499    872.605896
6660.79    838.550232    841.134827
6662.26    866.822571    859.243103
6663.73    871.880737    865.465454
6665.20    884.793274    890.153320
6666.67    914.591431    910.081421
6668.14    917.966553    915.103699
6669.61    927.051880    933.255615
6671.08    921.178589    929.343872
6672.55    895.218201    904.767944
6674.02    894.293335    885.448303
6675.49    889.135498    874.519104
6676.96    873.931091    876.201416
6678.43    919.585632    919.959778
6679.90    912.623901    907.679321
6681.37    902.508545    900.645569
6682.84    951.908936    953.290527
6684.31    939.634583    949.224731
6685.78    926.663757    928.667969
6687.25    886.614990    870.792969
6688.72    883.540771    878.141602
6690.19    939.682190    946.088013
6691.66    884.736023    880.469971
6693.13    886.515808    881.271484
6694.60    965.177246    960.330444
6696.07    940.691528    940.318115
6697.54    916.148315    914.892334
6699.01    939.569275    934.227234
6700.48    932.447815    933.684082
6701.95    937.287964    931.977539
6703.42    944.452393    951.495911
6704.89    976.814514    989.852966
6706.36    1001.467102    1000.235962
6707.83    912.817932    906.116333
6709.30    898.219116    913.095276
6710.76    930.930725    943.218506
6712.23    932.033264    925.047974
6713.70    896.097717    897.995789
6715.17    864.971191    862.287109
6716.64    905.724609    910.264282
6718.11    863.418701    867.535156
6719.58    844.485107    842.194519
6721.05    878.858093    878.120667
6722.52    891.799072    885.490723
6723.99    836.142456    834.525391
6725.46    888.714111    892.317871
6726.93    879.901672    877.163208
6728.40    873.491272    875.533813
6729.87    834.669861    835.755676
6731.34    857.067017    853.049072
6732.81    889.278076    881.983398
6734.28    895.517456    892.855042
6735.75    929.138306    920.715637
6737.22    940.986023    932.109558
6738.69    920.375427    918.316650
6740.16    934.710876    929.102539
6741.63    984.101013    974.234924
6743.10    892.939270    891.554260
6744.57    932.705322    925.027527
6746.04    945.923035    945.314392
6747.51    929.630127    934.149109
6748.98    954.623291    963.450012
6750.45    962.603027    956.975769
6751.92    875.948181    883.398254
6753.39    892.599060    905.423462
6754.86    935.336426    938.111023
6756.33    927.597961    927.892944
6757.80    874.505188    863.419861
6759.27    928.353027    921.204346
6760.74    937.239014    946.523682
6762.21    895.705750    870.532593
6763.68    923.298706    920.095093
6765.15    927.837585    932.343750
6766.62    880.501221    876.817993
6768.09    876.190247    877.382263
6769.56    879.410706    875.761292
6771.03    882.120056    884.081543
6772.50    896.369751    879.232605
6773.97    872.529663    866.759216
6775.44    966.835693    972.241333
6776.91    945.311401    950.572449
6778.38    871.793945    868.199524
6779.85    923.886230    913.681152
6781.32    902.234802    897.406555
6782.79    915.815308    929.792664
6784.26    948.148437    948.992981
6785.73    849.227905    857.095154
6787.20    842.243713    846.317017
6788.67    902.931946    905.171509
6790.14    910.797119    922.401428
6791.61    858.821167    858.331299
6793.08    844.129761    825.740173
6794.55    948.618408    949.006958
6796.02    902.561401    917.288818
6797.49    837.113708    835.902466
6798.96    886.879822    889.303833
6800.43    870.498901    880.643799
6801.90    896.692017    898.004761
6803.37    862.811096    869.234192
6804.84    895.421448    897.018677
6806.31    917.968262    910.960754
6807.78    879.562683    871.354370
6809.25    894.906555    894.260559
6810.72    903.397339    905.331970
6812.19    861.014771    846.524109
6813.66    901.652405    901.670105
6815.13    873.090332    877.254944
6816.60    919.391785    910.186646
6818.06    915.721863    912.257324
6819.53    890.334717    901.283813
6821.00    882.526794    883.544067
6822.47    835.513000    841.705383
6823.94    900.209656    896.879944
6825.41    910.466614    902.700562
6826.88    862.897278    861.664490
6828.35    876.939453    886.382751
6829.82    901.013000    892.050293
6831.29    874.434998    870.617737
6832.76    830.623840    832.202148
6834.23    892.625305    896.118530
6835.70    863.801453    868.774353
6837.17    863.427002    866.676147
6838.64    863.459595    866.024048
6840.11    827.658875    829.383179
6841.58    866.597168    854.876282
6843.05    902.925476    906.820557
6844.52    820.008545    832.571167
6845.99    831.571777    828.736145
6847.46    858.432373    865.515686
6848.93    871.148682    871.486084
6850.40    856.283936    835.813293
6851.87    829.567810    830.549438
6853.34    817.195435    815.110962
6854.81    861.725464    852.190063
6856.28    902.921265    897.473755
6857.75    849.961853    862.875549
6859.22    879.169373    881.167786
6860.69    846.896973    844.872925
6862.16    828.573242    845.740295
6863.63    781.668152    789.120850
6865.10    747.655090    737.162415
6866.57    756.218933    765.091248
6868.04    678.366150    676.762939
6869.51    651.300110    656.924133
6870.98    614.321838    623.689453
6872.45    599.774231    595.764648
6873.92    616.644836    607.051086
6875.39    663.622925    663.339539
6876.86    732.727966    746.569214
6878.33    731.964355    703.859924
6879.80    733.994812    727.318665
6881.27    832.595337    838.067383
6882.74    850.466431    858.333862
6884.21    788.186340    795.566772
6885.68    790.442322    787.612000
6887.15    741.559387    733.540649
6888.62    718.515625    712.843689
6890.09    785.291504    781.102173
6891.56    796.619873    800.448181
6893.03    781.527954    774.736328
6894.50    735.073792    732.130981
6895.97    755.641602    762.105408
6897.44    785.924622    796.953674
6898.91    785.768250    792.469543
6900.38    751.069702    747.029297
6901.85    717.546143    749.821411
6903.32    736.838318    762.989624
6904.79    788.589050    785.589905
6906.26    781.371521    788.205017
6907.73    757.123047    771.130249
6909.20    781.329224    777.521301
6910.67    762.865601    752.044556
6912.14    788.989807    791.849548
6913.61    787.507813    786.411804
6915.08    800.574402    803.724915
6916.55    827.927856    829.859314
6918.02    830.510925    830.662598
6919.49    835.671021    850.293091
6920.96    849.791443    857.971863
6922.43    834.556335    835.833618
6923.90    790.386047    801.179565
6925.36    824.231079    831.987671
6926.83    785.435669    784.400269
6928.30    780.046753    783.705627
6929.77    806.355042    810.791626
6931.24    793.431091    795.453186
6932.71    858.122131    857.602234
6934.18    840.234314    833.098938
6935.65    811.231934    811.046814
6937.12    810.293701    808.345154
6938.59    858.463806    845.570374
6940.06    879.120483    870.304504
6941.53    810.576355    816.403503
6943.00    861.323059    870.637451
6944.47    830.044678    839.076050
6945.94    801.613708    809.958862
6947.41    874.611633    870.379517
6948.88    807.847046    812.375305
6950.35    789.970276    803.006226
6951.82    808.624390    810.104980
6953.29    776.533142    776.199158
6954.76    809.170593    819.226807
6956.23    813.190369    820.291260
6957.70    773.831604    773.589233
6959.17    813.048889    810.131042
6960.64    829.512024    821.195251
6962.11    795.439331    793.343750
6963.58    866.644104    867.320557
6965.05    871.151489    874.900696
6966.52    873.671753    884.489441
6967.99    868.556763    872.770630
6969.46    807.918518    811.613586
6970.93    796.132568    797.369141
6972.40    797.528687    785.183777
6973.87    831.806519    819.030212
6975.34    824.539490    825.383545
6976.81    798.205444    806.471252
6978.28    821.431519    824.739319
6979.75    823.255859    820.886536
6981.22    849.110779    843.686584
6982.69    827.958252    822.228455
6984.16    832.265015    831.094421
6985.63    811.264221    813.882813
6987.10    828.361694    841.750488
6988.57    817.241333    835.105713
6990.04    878.509460    879.364746
6991.51    857.627441    848.234558
6992.98    857.319214    854.568176
6994.45    802.386719    805.905029
6995.92    807.668274    803.517944
6997.39    850.045715    839.482544
6998.86    808.079407    805.153687
7000.33    855.094421    869.715637
7001.80    793.124573    803.492371
7003.27    788.900696    796.752197
7004.74    833.533020    855.919800
7006.21    822.315369    831.480408
7007.68    804.316528    802.372925
7009.15    782.756653    780.208679
7010.62    779.142090    771.414917
7012.09    820.589355    826.153198
7013.56    883.035767    896.509338
7015.03    834.253784    837.408752
7016.50    825.741150    820.533691
7017.97    791.966370    798.584229
7019.44    781.863342    795.966187
7020.91    854.232300    857.144043
7022.38    820.893433    812.743835
7023.85    815.916443    822.240112
7025.32    876.848694    871.471252
7026.79    838.940796    825.229309
7028.26    770.324524    770.467773
7029.73    827.388367    835.223877
7031.20    858.297302    859.769470
7032.66    815.579468    814.981689
7034.13    876.255676    870.216492
7035.60    882.223022    880.651306
7037.07    810.694580    808.583313
7038.54    857.603577    854.996521
7040.01    864.739746    868.110596
7041.48    846.709473    840.297424
7042.95    825.386902    822.515320
7044.42    854.056274    849.076843
7045.89    837.695374    836.974609
7047.36    828.173035    828.987244
7048.83    818.121277    828.220703
7050.30    856.769165    847.982788
7051.77    873.462769    880.454468
7053.24    845.288025    838.346130
7054.71    777.666748    770.053833
7056.18    890.031677    890.225891
7057.65    886.144409    886.190369
7059.12    842.505737    839.981567
7060.59    834.640137    830.464478
7062.06    859.840271    865.067993
7063.53    815.736267    820.821228
7065.00    781.761658    769.244324
7066.47    820.981323    815.900818
7067.94    825.282043    820.558777
7069.41    872.959351    872.761108
7070.88    841.958557    851.626831
7072.35    837.339111    837.881897
7073.82    880.139648    881.558472
7075.29    865.805054    866.489380
7076.76    903.618469    899.995117
7078.23    878.347290    875.564087
7079.70    853.674744    855.335449
7081.17    807.450684    819.298950
7082.64    817.366638    819.732300
7084.11    834.569275    826.139832
7085.58    842.339355    841.961060
7087.05    882.348938    878.250427
7088.52    813.336609    803.479736
7089.99    845.487427    840.121094
7091.46    848.919250    833.597900
7092.93    881.409241    885.515076
7094.40    852.899780    849.446899
7095.87    839.188965    840.833923
7097.34    828.042480    838.559143
7098.81    822.592712    829.576843
7100.28    891.095276    886.905396
7101.75    849.601135    847.074707
7103.22    859.240479    863.665039
7104.69    885.690063    875.123474
7106.16    861.958008    860.026550
7107.63    828.166260    838.263062
7109.10    805.774231    808.857361
7110.57    844.301819    844.400940
7112.04    828.257141    823.828674
7113.51    830.440918    824.306274
7114.98    861.264404    864.560608
7116.45    868.616455    864.990723
7117.92    832.436829    822.996887
7119.39    845.968994    841.625793
7120.86    863.838074    857.886353
7122.33    795.672791    799.510193
7123.80    819.683838    822.338562
7125.27    796.854858    795.349182
7126.74    877.053711    872.634338
7128.21    820.927246    826.992676
7129.68    844.695313    845.568298
7131.15    821.835022    822.838928
7132.62    837.449646    833.829224
7134.09    848.553894    840.660645
7135.56    816.052368    807.744995
7137.03    823.947937    824.756653
7138.50    831.281982    831.289307
7139.96    850.358582    854.437622
7141.43    864.267395    865.039673
7142.90    861.443909    853.951233
7144.37    838.691956    839.035767
7145.84    858.637756    859.069031
7147.31    827.432129    820.460999
7148.78    802.082214    795.861633
7150.25    846.520508    841.688110
7151.72    834.058411    824.532349
7153.19    816.925842    821.787231
7154.66    874.626831    876.661682
7156.13    893.183716    898.083069
7157.60    874.016541    878.052307
7159.07    878.895935    877.192993
7160.54    865.016846    867.708679
7162.01    879.102356    879.734253
7163.48    837.975342    834.385925
7164.95    874.474487    870.239502
7166.42    915.216919    912.015503
7167.89    885.401428    887.882202
7169.36    862.357361    855.949219
7170.83    774.841553    756.099487
7172.30    792.945435    790.278320
7173.77    851.346924    863.270081
7175.24    762.102478    766.113953
7176.71    790.995972    794.348755
7178.18    797.883972    806.750488
7179.65    817.747131    828.907043
7181.12    850.111877    858.614990
7182.59    822.940918    825.794678
7184.06    778.666809    768.380981
7185.53    783.668762    780.830933
7187.00    812.096985    807.266724
7188.47    792.355164    788.542603
7189.94    766.312683    773.694153
7191.41    774.823853    777.796143
7192.88    806.760498    799.210938
7194.35    806.396240    800.696594
7195.82    791.875488    787.594360
7197.29    803.574097    799.648499
7198.76    792.794312    788.999023
7200.23    838.327332    842.106262
7201.70    822.066833    823.273071
7203.17    738.637878    725.783630
7204.64    799.254944    804.044556
7206.11    818.850586    832.436157
7207.58    763.106201    804.022644
7209.05    790.744690    806.728638
7210.52    847.318848    841.111450
7211.99    856.910950    851.768127
7213.46    903.628967    898.143311
7214.93    874.258789    870.260010
7216.40    888.459778    885.946838
7217.87    899.967896    894.700867
7219.34    856.809448    838.276367
7220.81    876.753967    871.311584
7222.28    847.659058    837.210144
7223.75    850.904053    850.594849
7225.22    853.840698    866.021179
7226.69    787.909058    800.048096
7228.16    798.883545    807.014648
7229.63    833.845276    827.765808
7231.10    780.684875    779.387512
7232.57    755.424561    767.869629
7234.04    796.814758    802.589172
7235.51    799.195374    793.756287
7236.98    779.416382    781.040710
7238.45    753.824707    751.820251
7239.92    822.065796    812.568726
7241.39    870.466492    880.908081
7242.86    804.888428    821.814636
7244.33    802.856262    798.976318
7245.80    768.046387    754.656799
7247.26    775.547607    764.428101
7248.73    796.912476    784.841492
7250.20    749.238586    734.056580
7251.67    780.678772    776.895752
7253.14    793.695007    788.014465
7254.61    786.385681    783.953064
7256.08    789.266602    793.070435
7257.55    725.194702    727.483704
7259.02    715.859863    716.392883
7260.49    735.542419    739.677185
7261.96    676.356506    676.542908
7263.43    730.776062    726.212708
7264.90    786.992737    793.754944
7266.37    768.751465    770.236633
7267.84    734.606689    732.159973
7269.31    741.369446    752.435059
7270.78    793.170166    804.432861
7272.25    807.152161    823.637024
7273.72    778.042053    801.908386
7275.19    752.101990    765.586121
7276.66    728.174744    737.240234
7278.13    721.599915    721.921265
7279.60    753.296265    765.846252
7281.07    731.622559    752.033997
7282.54    779.849365    787.357056
7284.01    786.204712    789.980469
7285.48    759.943665    760.888245
7286.95    779.596130    777.129028
7288.42    781.416443    779.912659
7289.89    682.911438    712.277527
7291.36    684.474243    716.861267
7292.83    805.403320    805.224792
7294.30    769.672852    775.463074
7295.77    735.168396    734.827087
7297.24    761.770996    773.297424
7298.71    740.708374    751.862061
7300.18    714.454102    719.296021
7301.65    733.075684    738.374390
7303.12    770.823059    781.665161
7304.59    714.689514    717.121521
7306.06    703.799377    702.555298
7307.53    746.897400    748.677063
7309.00    753.924683    746.256348
7310.47    715.247070    715.083191
7311.94    706.141052    699.070801
7313.41    767.768250    763.765564
7314.88    840.602295    849.987549
7316.35    730.041199    723.041748
7317.82    686.713501    677.484924
7319.29    717.238831    717.244873
7320.76    724.713318    712.946960
7322.23    697.493713    691.251709
7323.70    744.789185    742.433350
7325.17    740.087891    734.289673
7326.64    707.668823    699.770569
7328.11    752.045837    757.251648
7329.58    723.429932    737.235718
7331.05    773.880493    786.062317
7332.52    769.053894    773.883179
7333.99    708.381592    703.445557
7335.46    744.239197    746.225342
7336.93    816.568787    823.952637
7338.40    812.063477    813.813232
7339.87    779.012329    776.342651
7341.34    766.332947    758.773132
7342.81    749.058105    744.399048
7344.28    774.258728    772.364075
7345.75    761.671570    754.521912
7347.22    730.660217    730.421814
7348.69    741.997559    737.373352
7350.16    689.819336    683.048462
7351.63    738.916870    738.818054
7353.10    745.079285    747.427002
7354.56    703.237610    711.205139
7356.03    761.633972    764.967346
7357.50    742.276855    744.608459
7358.97    753.701416    761.768860
7360.44    733.136536    741.398743
7361.91    765.812256    778.462646
7363.38    722.518494    724.962891
7364.85    720.661255    717.451538
7366.32    699.347229    696.850708
7367.79    774.658997    769.325684
7369.26    771.771973    778.223267
7370.73    706.286987    721.461792
7372.20    749.609558    765.618774
7373.67    758.841614    755.695923
7375.14    745.821533    748.218628
7376.61    729.132813    735.987244
7378.08    735.012390    721.772949
7379.55    733.316345    732.071716
7381.02    714.889465    718.741638
7382.49    762.577393    747.957153
7383.96    695.143250    689.724243
7385.43    745.021729    743.036377
7386.90    695.629639    696.017761
7388.37    710.343689    720.231628
7389.84    725.374512    715.184753
7391.31    710.705261    699.832153
7392.78    725.243225    710.256226
7394.25    743.132263    751.248657
7395.72    751.401611    752.680054
7397.19    703.229187    690.351929
7398.66    729.204102    743.979370
7400.13    722.715515    737.656738
7401.60    790.050476    801.018494
7403.07    769.454102    772.483337
7404.54    768.109009    761.187500
7406.01    747.375732    754.352966
7407.48    727.322388    716.095337
7408.95    691.068298    696.045227
7410.42    706.612427    710.932983
7411.89    738.537537    740.450867
7413.36    744.562988    746.547974
7414.83    715.411377    705.947083
7416.30    694.345886    693.699707
7417.77    759.669006    759.690430
7419.24    750.972290    743.833130
7420.71    743.003540    739.112671
7422.18    747.618530    744.126038
7423.65    753.358765    753.283813
7425.12    729.939270    727.769287
7426.59    754.433411    756.983154
7428.06    771.036377    772.947021
7429.53    747.117371    735.601135
7431.00    753.714478    761.126587
7432.47    733.358887    729.288391
7433.94    766.606140    760.026367
7435.41    759.663391    763.358398
7436.88    752.784363    760.476990
7438.35    698.179321    721.690491
7439.82    712.876648    712.927307
7441.29    738.028503    737.084229
7442.76    726.285828    730.160156
7444.23    760.464661    761.260681
7445.70    703.408142    714.205811
7447.17    734.004944    735.885620
7448.64    721.063721    718.600586
7450.11    714.899109    739.395203
7451.58    734.647339    736.045471
7453.05    670.471802    653.601990
7454.52    730.484802    740.752686
7455.99    796.649597    803.590637
7457.46    692.173401    699.562317
7458.93    678.957458    668.323547
7460.40    731.505310    729.179382
7461.86    655.688660    670.815857
7463.33    636.619446    639.732483
7464.80    666.687500    665.794189
7466.27    656.027771    666.194580
7467.74    698.306946    699.279175
7469.21    734.786316    752.355225
7470.68    729.169250    741.619263
7472.15    662.682983    673.643677
7473.62    681.832214    670.235168
7475.09    687.108887    683.190430
7476.56    697.164856    710.682251
7478.03    669.445923    660.415222
7479.50    717.731934    714.595581
7480.97    764.852966    762.933594
7482.44    705.515808    691.867920
7483.91    660.426147    661.350708
7485.38    745.642151    733.220947
7486.85    731.636658    719.417542
7488.32    696.470215    701.191833
7489.79    696.969910    692.337463
7491.26    714.793579    713.149353
7492.73    694.325989    709.169556
7494.20    751.856262    754.784546
7495.67    739.051697    747.432251
7497.14    781.235657    781.333923
7498.61    731.025757    734.985596
7500.08    771.338318    769.343445
7501.55    720.442932    727.861694
7503.02    779.477356    783.317383
7504.49    724.921021    724.816040
7505.96    692.525513    694.534668
7507.43    684.427307    692.211731
7508.90    742.084167    740.424316
7510.37    738.908020    735.779724
7511.84    682.226746    671.333801
7513.31    703.042786    707.414612
7514.78    687.953125    695.539856
7516.25    672.065002    657.496338
7517.72    679.663513    666.233948
7519.19    746.871094    748.220520
7520.66    753.367615    744.639221
7522.13    697.223145    692.622437
7523.60    754.188965    754.593201
7525.07    769.154297    770.261414
7526.54    724.800903    712.446594
7528.01    708.474548    672.519958
7529.48    735.348633    730.968018
7530.95    737.237122    731.121155
7532.42    724.176331    735.068054
7533.89    696.614868    692.242187
7535.36    706.738037    697.862366
7536.83    718.215149    695.987732
7538.30    742.284546    728.514648
7539.77    731.179382    731.817078
7541.24    693.891968    686.621643
7542.71    666.450684    654.237671
7544.18    667.612732    667.421631
7545.65    724.458801    722.223511
7547.12    783.384277    789.926453
7548.59    725.352722    725.800232
7550.06    716.648804    722.064941
7551.53    718.442505    719.071777
7553.00    721.457886    730.074951
7554.47    724.420410    721.207275
7555.94    735.555359    726.293762
7557.41    731.585083    727.250427
7558.88    732.498962    713.988464
7560.35    725.697632    738.014893
7561.82    702.496338    719.178284
7563.29    697.663208    699.566223
7564.76    740.409668    745.782532
7566.23    663.709595    672.332397
7567.70    651.780212    652.288513
7569.16    698.004578    699.396606
7570.63    686.061523    683.514893
7572.10    677.882324    681.759888
7573.57    680.287659    678.517273
7575.04    702.725037    689.004395
7576.51    675.874329    684.153931
7577.98    630.095276    632.984924
7579.45    698.133057    704.171143
7580.92    666.551086    663.505371
7582.39    652.758118    653.684387
7583.86    642.468628    646.252014
7585.33    688.222778    698.246033
