#Wavelength     Flux
#[Angstrom]   [Counts]
3932.25    815.627600
3933.89    887.932900
3935.52    950.530200
3937.16    789.742600
3938.79    471.604100
3940.42    608.697000
3942.06    684.188000
3943.69    691.868300
3945.32    736.218400
3946.96    835.627700
3948.59    891.979400
3950.23    796.647500
3951.86    632.772000
3953.49    450.170600
3955.13    566.218200
3956.76    625.679000
3958.39    724.575400
3960.03    732.781800
3961.66    690.590000
3963.30    779.664000
3964.93    964.737100
3966.56    611.946000
3968.20    695.036000
3969.83    783.175300
3971.47    682.993300
3973.10    875.458500
3974.73    719.200700
3976.37    529.201700
3978.00    938.359100
3979.64    898.106900
3981.27    735.792100
3982.90    1020.059000
3984.54    1131.812000
3986.17    980.556600
3987.80    1128.359000
3989.44    924.375700
3991.07    854.821800
3992.71    903.951500
3994.34    798.556700
3995.97    685.112900
3997.61    935.492600
3999.24    822.350300
4000.88    645.989200
4002.51    672.046900
4004.14    795.993300
4005.78    986.183100
4007.41    1083.221000
4009.04    894.271500
4010.68    837.645300
4012.31    1047.218000
4013.95    826.388500
4015.58    735.774700
4017.21    985.061500
4018.85    943.609900
4020.48    960.995700
4022.11    837.792800
4023.75    800.083800
4025.38    887.399900
4027.02    1186.320000
4028.65    1234.856000
4030.28    966.805600
4031.92    828.557000
4033.55    1127.886000
4035.19    1240.678000
4036.82    938.101900
4038.45    903.891800
4040.09    1072.300000
4041.72    1082.237000
4043.36    994.377800
4044.99    937.077400
4046.62    840.572100
4048.26    660.307600
4049.89    714.988500
4051.52    641.108900
4053.16    534.293400
4054.79    692.965500
4056.43    688.487100
4058.06    395.921200
4059.69    374.317700
4061.33    515.012400
4062.96    737.867400
4064.59    785.674200
4066.23    1210.150000
4067.86    1193.716000
4069.50    1033.615000
4071.13    1186.713000
4072.76    1121.835000
4074.40    937.192600
4076.03    946.283800
4077.67    956.998100
4079.30    1166.182000
4080.93    1008.404000
4082.57    992.262000
4084.20    871.873500
4085.84    737.131900
4087.47    704.393900
4089.10    573.204700
4090.74    511.408400
4092.37    835.903400
4094.01    836.537700
4095.64    673.003500
4097.27    890.016200
4098.91    1267.883000
4100.54    1256.730000
4102.17    1363.356000
4103.81    1274.757000
4105.44    1124.984000
4107.07    1294.955000
4108.71    1250.825000
4110.34    1147.332000
4111.98    1455.406000
4113.61    1495.297000
4115.24    1333.519000
4116.88    1534.662000
4118.51    1725.211000
4120.15    1542.853000
4121.78    1290.433000
4123.41    1364.220000
4125.05    1282.565000
4126.68    1543.073000
4128.31    1562.041000
4129.95    1347.050000
4131.58    1362.385000
4133.22    1436.770000
4134.85    1289.827000
4136.48    1275.484000
4138.12    1465.077000
4139.75    1463.268000
4141.39    1401.272000
4143.02    1377.589000
4144.65    1682.948000
4146.29    1823.153000
4147.92    1667.145000
4149.56    1487.120000
4151.19    1369.293000
4152.82    1416.993000
4154.46    1385.534000
4156.09    1335.228000
4157.73    1286.492000
4159.36    1465.585000
4160.99    1536.969000
4162.63    1490.236000
4164.26    1190.026000
4165.89    1585.185000
4167.53    1476.268000
4169.16    1381.722000
4170.80    1171.593000
4172.43    1233.852000
4174.06    1470.494000
4175.70    1551.543000
4177.33    1525.825000
4178.97    1438.368000
4180.60    1315.628000
4182.23    1282.946000
4183.87    1257.382000
4185.50    1246.882000
4187.13    1191.005000
4188.77    1361.394000
4190.40    1356.583000
4192.04    1193.962000
4193.67    1196.060000
4195.30    1255.742000
4196.94    1418.487000
4198.57    1217.418000
4200.20    1395.508000
4201.84    1551.712000
4203.47    1417.250000
4205.11    1465.683000
4206.74    1363.390000
4208.37    1353.260000
4210.01    1531.805000
4211.64    1592.147000
4213.27    1481.876000
4214.91    1604.630000
4216.54    1518.013000
4218.18    1580.630000
4219.81    1445.504000
4221.44    1446.296000
4223.08    1585.766000
4224.71    1504.511000
4226.35    1258.628000
4227.98    1219.743000
4229.61    1229.434000
4231.25    1254.579000
4232.88    1432.019000
4234.52    1280.731000
4236.15    1439.775000
4237.78    1684.707000
4239.42    1533.761000
4241.05    1542.780000
4242.69    1542.588000
4244.32    1472.293000
4245.95    1578.228000
4247.59    1586.211000
4249.22    1726.612000
4250.85    1632.070000
4252.49    1657.059000
4254.12    1633.364000
4255.76    1402.923000
4257.39    1387.784000
4259.02    1314.174000
4260.66    1510.440000
4262.29    1403.699000
4263.93    1255.722000
4265.56    1272.953000
4267.19    1299.177000
4268.83    1481.512000
4270.46    1326.111000
4272.09    1413.135000
4273.73    1325.192000
4275.36    1411.043000
4277.00    1517.120000
4278.63    1425.442000
4280.26    1476.912000
4281.90    1193.439000
4283.53    1125.835000
4285.16    1358.281000
4286.80    1431.987000
4288.43    1521.882000
4290.07    1454.259000
4291.70    1488.683000
4293.33    1495.388000
4294.97    1372.809000
4296.60    1320.531000
4298.24    1245.877000
4299.87    1450.594000
4301.50    1465.955000
4303.14    1348.717000
4304.77    1258.570000
4306.40    1301.908000
4308.04    1478.181000
4309.67    1497.930000
4311.31    1307.923000
4312.94    1500.425000
4314.57    1419.747000
4316.21    1336.400000
4317.84    1431.234000
4319.48    1370.966000
4321.11    1589.927000
4322.74    1532.239000
4324.38    1384.453000
4326.01    1403.943000
4327.65    1384.879000
4329.28    1324.058000
4330.91    1527.315000
4332.55    1541.216000
4334.18    1545.578000
4335.81    1490.438000
4337.45    1598.802000
4339.08    1637.641000
4340.72    1606.066000
4342.35    1710.227000
4343.98    1441.643000
4345.62    1346.871000
4347.25    1333.533000
4348.89    1454.217000
4350.52    1528.858000
4352.15    1512.964000
4353.79    1500.031000
4355.42    1368.950000
4357.05    1192.657000
4358.69    1219.376000
4360.32    1231.897000
4361.96    1390.965000
4363.59    1474.099000
4365.22    1464.204000
4366.86    1566.267000
4368.49    1388.849000
4370.12    1587.906000
4371.76    1624.222000
4373.39    1645.009000
4375.03    1624.438000
4376.66    1651.827000
4378.29    1702.125000
4379.93    1621.133000
4381.56    1408.005000
4383.20    1514.169000
4384.83    1419.459000
4386.46    1427.177000
4388.10    1402.305000
4389.73    1495.180000
4391.36    1560.386000
4393.00    1713.149000
4394.63    1780.298000
4396.27    1834.455000
4397.90    1891.796000
4399.53    1918.963000
4401.17    1526.505000
4402.80    1511.136000
4404.44    1601.338000
4406.07    1259.894000
4407.70    1364.662000
4409.34    1611.115000
4410.97    1458.846000
4412.60    1331.930000
4414.24    1395.941000
4415.87    1217.185000
4417.51    1055.346000
4419.14    1377.616000
4420.77    1624.018000
4422.41    1361.967000
4424.04    1266.364000
4425.68    1395.531000
4427.31    1296.289000
4428.94    1157.891000
4430.58    1170.207000
4432.21    1181.552000
4433.85    1182.666000
4435.48    1019.227000
4437.11    1144.112000
4438.75    1032.889000
4440.38    1082.714000
4442.02    1032.413000
4443.65    1254.562000
4445.28    1207.389000
4446.92    1174.202000
4448.55    1413.097000
4450.18    1750.598000
4451.82    1693.307000
4453.45    1724.952000
4455.09    1697.844000
4456.72    1615.035000
4458.35    1607.415000
4459.99    1569.351000
4461.62    1625.922000
4463.25    1693.960000
4464.89    1824.513000
4466.52    1944.958000
4468.16    1915.966000
4469.79    1811.402000
4471.42    1608.776000
4473.06    1547.367000
4474.69    1624.547000
4476.32    1731.485000
4477.96    1624.469000
4479.59    1636.662000
4481.23    1601.277000
4482.86    1810.694000
4484.49    1934.513000
4486.13    1560.298000
4487.76    1441.621000
4489.40    1740.686000
4491.03    1506.552000
4492.66    1716.415000
4494.30    1774.595000
4495.93    1753.281000
4497.56    1826.151000
4499.20    1723.232000
4500.83    1728.294000
4502.47    1766.660000
4504.10    1779.739000
4505.73    1795.889000
4507.37    1782.038000
4509.00    1589.676000
4510.64    1568.674000
4512.27    1525.780000
4513.90    1851.803000
4515.54    1807.050000
4517.17    1364.409000
4518.81    1353.652000
4520.44    1475.739000
4522.07    1559.941000
4523.71    1708.304000
4525.34    1641.806000
4526.98    1677.530000
4528.61    1780.261000
4530.24    1576.660000
4531.88    1706.162000
4533.51    1916.649000
4535.14    1675.444000
4536.78    1666.835000
4538.41    1642.711000
4540.05    1625.617000
4541.68    1372.221000
4543.31    1513.811000
4544.95    1902.021000
4546.58    2065.532000
4548.22    2004.316000
4549.85    1889.568000
4551.48    1827.006000
4553.12    1701.485000
4554.75    1875.439000
4556.38    1976.743000
4558.02    1753.364000
4559.65    1955.495000
4561.29    1860.988000
4562.92    1900.614000
4564.55    1863.681000
4566.19    1802.034000
4567.82    1669.236000
4569.45    1838.617000
4571.09    1698.206000
4572.72    1749.252000
4574.36    2194.101000
4575.99    2051.538000
4577.62    2082.609000
4579.26    2097.948000
4580.89    1932.240000
4582.52    1918.986000
4584.16    2207.482000
4585.79    2103.260000
4587.43    1937.708000
4589.06    2020.994000
4590.69    2011.707000
4592.33    1732.155000
4593.96    1708.329000
4595.60    1688.733000
4597.23    1677.646000
4598.86    1680.055000
4600.50    1723.584000
4602.13    1889.915000
4603.77    1804.676000
4605.40    1757.014000
4607.03    1848.117000
4608.67    2034.272000
4610.30    2049.111000
4611.94    1931.536000
4613.57    2142.634000
4615.20    2059.149000
4616.84    2040.670000
4618.47    1935.374000
4620.10    2017.727000
4621.74    2099.174000
4623.37    1995.150000
4625.01    1938.089000
4626.64    2007.728000
4628.27    1824.499000
4629.91    1916.068000
4631.54    2135.000000
4633.18    2078.576000
4634.81    1932.724000
4636.44    2054.316000
4638.08    2173.417000
4639.71    2070.487000
4641.34    2107.785000
4642.98    2143.687000
4644.61    2360.739000
4646.25    2335.259000
4647.88    2478.628000
4649.51    2244.285000
4651.15    2064.547000
4652.78    2280.590000
4654.41    2243.444000
4656.05    2242.708000
4657.68    2117.349000
4659.32    2092.126000
4660.95    2114.823000
4662.58    2181.822000
4664.22    2182.422000
4665.85    2023.146000
4667.49    1728.767000
4669.12    1787.998000
4670.75    1920.040000
4672.39    1897.786000
4674.02    1886.716000
4675.65    1820.597000
4677.29    2097.624000
4678.92    1985.627000
4680.56    2102.244000
4682.19    2051.216000
4683.82    1873.262000
4685.46    1783.336000
4687.09    1911.797000
4688.73    2228.385000
4690.36    2121.929000
4691.99    1981.261000
4693.63    1896.655000
4695.26    2002.053000
4696.90    2104.601000
4698.53    2359.753000
4700.16    2221.575000
4701.80    2259.633000
4703.43    2190.775000
4705.06    2204.087000
4706.70    2098.373000
4708.33    2002.248000
4709.97    2155.796000
4711.60    2244.593000
4713.23    2186.125000
4714.87    2331.684000
4716.50    2284.034000
4718.14    2297.811000
4719.77    2065.143000
4721.40    2048.465000
4723.04    2062.056000
4724.67    2027.542000
4726.30    2025.592000
4727.94    2057.097000
4729.57    2063.933000
4731.21    2289.297000
4732.84    2044.410000
4734.47    2047.600000
4736.11    1845.536000
4737.74    1883.054000
4739.38    2118.157000
4741.01    2036.191000
4742.64    2081.419000
4744.28    2053.361000
4745.91    1939.861000
4747.54    2142.241000
4749.18    2256.897000
4750.81    2216.295000
4752.45    2442.372000
4754.08    2356.014000
4755.71    2302.039000
4757.35    2134.314000
4758.98    2314.165000
4760.61    2381.380000
4762.25    2282.864000
4763.88    2235.538000
4765.52    2395.750000
4767.15    2226.983000
4768.78    2190.921000
4770.42    2310.459000
4772.05    2281.058000
4773.69    2511.377000
4775.32    2162.505000
4776.95    2083.453000
4778.59    2288.622000
4780.22    2220.879000
4781.85    1910.880000
4783.49    2216.815000
4785.12    2122.397000
4786.76    1939.229000
4788.39    1900.649000
4790.02    1949.041000
4791.66    1940.772000
4793.29    2001.343000
4794.93    2000.680000
4796.56    2179.992000
4798.19    1999.787000
4799.83    2089.021000
4801.46    2211.530000
4803.10    2305.368000
4804.73    2236.204000
4806.36    2103.058000
4808.00    2288.961000
4809.63    1931.816000
4811.26    1825.385000
4812.90    1824.652000
4814.53    1832.788000
4816.17    1934.394000
4817.80    1881.477000
4819.43    1883.391000
4821.07    2146.531000
4822.70    2129.760000
4824.34    1994.746000
4825.97    2128.865000
4827.60    2026.947000
4829.24    2143.924000
4830.87    2184.033000
4832.50    2311.103000
4834.14    2255.397000
4835.77    2005.632000
4837.41    1977.727000
4839.04    2168.873000
4840.67    2270.455000
4842.31    2044.475000
4843.94    2167.584000
4845.57    1982.078000
4847.21    2035.088000
4848.84    2247.810000
4850.48    2095.432000
4852.11    2016.531000
4853.74    2052.011000
4855.38    2183.523000
4857.01    2135.179000
4858.65    2112.576000
4860.28    1986.306000
4861.91    2126.074000
4863.55    2230.134000
4865.18    2157.191000
4866.81    2407.875000
4868.45    2297.294000
4870.08    2309.265000
4871.72    2052.994000
4873.35    2302.842000
4874.98    2020.017000
4876.62    2174.000000
4878.25    2150.058000
4879.89    2362.905000
4881.52    2213.449000
4883.15    2010.057000
4884.79    2014.134000
4886.42    2443.828000
4888.06    2086.201000
4889.69    2146.536000
4891.32    2330.231000
4892.96    2129.205000
4894.59    2342.590000
4896.23    2242.900000
4897.86    2212.652000
4899.49    2244.817000
4901.13    2312.489000
4902.76    1999.447000
4904.39    2035.392000
4906.03    2346.148000
4907.66    2137.550000
4909.30    2113.735000
4910.93    2233.619000
4912.56    2130.114000
4914.20    1935.011000
4915.83    2213.725000
4917.46    2259.071000
4919.10    2172.901000
4920.73    2280.469000
4922.37    2199.701000
4924.00    2235.649000
4925.63    2252.903000
4927.27    2320.633000
4928.90    2273.842000
4930.53    2124.569000
4932.17    2122.052000
4933.80    2006.265000
4935.44    2037.088000
4937.07    2050.852000
4938.70    2276.908000
4940.34    2211.832000
4941.97    2295.889000
4943.61    2301.781000
4945.24    2299.452000
4946.87    2498.513000
4948.51    2252.537000
4950.14    2216.198000
4951.77    2308.087000
4953.41    2309.396000
4955.04    2343.157000
4956.68    2202.470000
4958.31    2416.870000
4959.94    2275.729000
4961.58    2146.051000
4963.21    2204.859000
4964.85    2489.235000
4966.48    2394.863000
4968.11    2121.514000
4969.75    2301.621000
4971.38    2197.305000
4973.02    2177.763000
4974.65    2231.949000
4976.28    2304.398000
4977.92    2240.022000
4979.55    2118.901000
4981.19    2237.313000
4982.82    2238.200000
4984.45    2204.994000
4986.09    2117.010000
4987.72    2141.951000
4989.35    2085.741000
4990.99    1971.266000
4992.62    2044.320000
4994.26    2359.180000
4995.89    2363.011000
4997.52    2085.606000
4999.16    1973.711000
5000.79    2115.566000
5002.43    2326.308000
5004.06    2223.351000
5005.69    2003.414000
5007.33    2151.080000
5008.96    2087.296000
5010.59    1983.068000
5012.23    1928.153000
5013.86    1852.502000
5015.50    1936.263000
5017.13    2070.939000
5018.76    2001.824000
5020.40    1920.811000
5022.03    2136.653000
5023.66    2072.242000
5025.30    1862.882000
5026.93    2021.040000
5028.57    1948.496000
5030.20    1874.413000
5031.83    2105.999000
5033.47    2073.689000
5035.10    1912.038000
5036.73    1789.467000
5038.37    1977.000000
5040.00    1958.696000
5041.64    1995.540000
5043.27    2130.411000
5044.90    2204.173000
5046.54    2153.995000
5048.17    2200.260000
5049.81    2241.901000
5051.44    2288.665000
5053.07    2176.706000
5054.71    2002.388000
5056.34    2176.208000
5057.98    2254.891000
5059.61    2222.187000
5061.24    2215.562000
5062.88    2232.472000
5064.51    2102.777000
5066.15    2079.991000
5067.78    1989.784000
5069.41    2141.773000
5071.05    2159.999000
5072.68    2038.604000
5074.31    2118.486000
5075.95    2087.214000
5077.58    2179.954000
5079.22    2115.452000
5080.85    2282.265000
5082.48    2342.023000
5084.12    2240.391000
5085.75    2136.006000
5087.39    2162.593000
5089.02    2286.017000
5090.65    2211.387000
5092.29    2224.893000
5093.92    2225.694000
5095.55    2239.543000
5097.19    2290.272000
5098.82    2195.931000
5100.46    2244.871000
5102.09    2237.841000
5103.72    2314.609000
5105.36    2250.966000
5106.99    2161.371000
5108.62    2256.153000
5110.26    2200.355000
5111.89    2118.211000
5113.53    2106.571000
5115.16    2261.482000
5116.79    2348.521000
5118.43    2115.749000
5120.06    2216.951000
5121.70    2057.325000
5123.33    2075.367000
5124.96    2277.829000
5126.60    2225.205000
5128.23    2231.089000
5129.86    2089.590000
5131.50    1959.353000
5133.13    1989.298000
5134.77    1860.346000
5136.40    1859.812000
5138.03    2009.447000
5139.67    2022.437000
5141.30    2063.303000
5142.94    2161.688000
5144.57    2130.820000
5146.20    2018.240000
5147.84    2035.677000
5149.47    1955.917000
5151.10    2178.242000
5152.74    2108.749000
5154.37    2051.810000
5156.01    2028.175000
5157.64    2134.622000
5159.27    2061.675000
5160.91    2070.181000
5162.54    2116.656000
5164.18    2127.838000
5165.81    2041.183000
5167.44    2080.147000
5169.08    1978.875000
5170.71    2008.958000
5172.35    1999.338000
5173.98    2024.462000
5175.61    1867.714000
5177.25    2023.878000
5178.88    1936.186000
5180.51    1888.603000
5182.15    1983.212000
5183.78    2256.172000
5185.42    2277.648000
5187.05    2042.382000
5188.68    2024.975000
5190.32    1999.528000
5191.95    2060.755000
5193.59    2081.627000
5195.22    1865.149000
5196.85    2260.781000
5198.49    1893.375000
5200.12    1841.917000
5201.75    2093.564000
5203.39    2220.654000
5205.02    2060.676000
5206.66    1868.283000
5208.29    2123.196000
5209.92    2120.343000
5211.56    2177.190000
5213.19    2126.471000
5214.82    2280.131000
5216.46    2303.691000
5218.09    2264.317000
5219.73    2131.564000
5221.36    2170.204000
5222.99    2058.021000
5224.63    2002.415000
5226.26    1989.717000
5227.90    2006.654000
5229.53    2269.778000
5231.16    2142.885000
5232.80    2002.997000
5234.43    2104.232000
5236.06    2007.135000
5237.70    1890.089000
5239.33    1753.239000
5240.97    1925.012000
5242.60    1830.558000
5244.23    1901.744000
5245.87    2064.303000
5247.50    2016.570000
5249.14    2137.592000
5250.77    2032.142000
5252.40    2094.865000
5254.04    1908.050000
5255.67    2042.190000
5257.31    1888.371000
5258.94    2034.800000
5260.57    1966.906000
5262.21    2004.797000
5263.84    2021.448000
5265.48    1996.823000
5267.11    1936.759000
5268.74    1923.326000
5270.38    2077.624000
5272.01    2087.672000
5273.64    2040.285000
5275.28    2124.198000
5276.91    2094.066000
5278.55    1974.363000
5280.18    1941.021000
5281.81    1868.305000
5283.45    1814.125000
5285.08    2040.600000
5286.71    2018.171000
5288.35    1960.131000
5289.98    2094.922000
5291.62    2069.586000
5293.25    2139.096000
5294.88    2152.460000
5296.52    1989.870000
5298.15    1973.822000
5299.78    1833.112000
5301.42    1877.839000
5303.05    1985.718000
5304.69    1915.608000
5306.32    1857.675000
5307.95    1937.952000
5309.59    1911.889000
5311.22    1753.753000
5312.86    1740.161000
5314.49    1806.412000
5316.12    1786.687000
5317.76    1835.976000
5319.39    2050.772000
5321.02    1891.758000
5322.66    1718.752000
5324.29    1662.490000
5325.93    1693.657000
5327.56    1648.189000
5329.19    1597.891000
5330.83    1507.234000
5332.46    1465.105000
5334.10    1599.042000
5335.73    1714.846000
5337.36    1763.591000
5339.00    1691.268000
5340.63    1735.401000
5342.27    1523.372000
5343.90    1655.006000
5345.53    1765.278000
5347.17    1884.130000
5348.80    1796.055000
5350.44    1764.430000
5352.07    2041.796000
5353.70    2041.463000
5355.34    1910.973000
5356.97    2049.321000
5358.60    2062.567000
5360.24    2027.971000
5361.87    2013.727000
5363.51    2096.316000
5365.14    1987.058000
5366.77    1934.835000
5368.41    1922.760000
5370.04    1798.900000
5371.68    1761.625000
5373.31    1815.118000
5374.94    1993.882000
5376.58    2033.291000
5378.21    1997.825000
5379.84    2242.167000
5381.48    2083.151000
5383.11    2071.095000
5384.75    2164.406000
5386.38    1915.324000
5388.01    1860.047000
5389.65    2003.662000
5391.28    1872.902000
5392.91    2003.461000
5394.55    2041.640000
5396.18    2161.931000
5397.82    2065.001000
5399.45    2290.035000
5401.08    2109.975000
5402.72    2218.395000
5404.35    2160.069000
5405.98    2080.892000
5407.62    2100.689000
5409.25    2060.836000
5410.89    2081.023000
5412.52    2055.054000
5414.15    2035.141000
5415.79    2039.951000
5417.42    2127.348000
5419.06    2105.716000
5420.69    2148.235000
5422.32    2104.768000
5423.96    2018.129000
5425.59    2028.256000
5427.23    1968.783000
5428.86    1949.002000
5430.49    1933.718000
5432.13    1808.533000
5433.76    1803.414000
5435.40    1748.088000
5437.03    1761.339000
5438.66    1850.643000
5440.30    2079.588000
5441.93    2094.926000
5443.56    2176.604000
5445.20    2226.444000
5446.83    2236.459000
5448.47    2174.929000
5450.10    2169.102000
5451.73    2226.999000
5453.37    2260.990000
5455.00    2287.148000
5456.64    2356.484000
5458.27    2174.540000
5459.90    1974.127000
5461.54    1946.015000
5463.17    1979.946000
5464.80    2073.761000
5466.44    2202.493000
5468.07    2212.028000
5469.71    2326.861000
5471.34    2173.428000
5472.97    2219.411000
5474.61    2468.151000
5476.24    2343.500000
5477.88    2322.352000
5479.51    2302.354000
5481.14    2233.761000
5482.78    2393.174000
5484.41    2288.546000
5486.04    2149.467000
5487.68    2012.953000
5489.31    2055.239000
5490.95    1956.500000
5492.58    1950.987000
5494.21    1924.396000
5495.85    2149.157000
5497.48    2161.463000
5499.11    2195.099000
5500.75    2309.458000
5502.38    2185.031000
5504.02    2313.011000
5505.65    2164.663000
5507.28    2099.197000
5508.92    2124.501000
5510.55    2377.757000
5512.19    2209.040000
5513.82    2267.999000
5515.45    2053.091000
5517.09    2087.770000
5518.72    2236.026000
5520.35    2436.888000
5521.99    2224.948000
5523.62    2258.237000
5525.26    2429.108000
5526.89    2388.466000
5528.52    2144.667000
5530.16    2121.710000
5531.79    2078.073000
5533.43    1993.771000
5535.06    2051.449000
5536.69    2159.221000
5538.33    2096.114000
5539.96    2128.675000
5541.60    2263.613000
5543.23    2064.477000
5544.86    2111.937000
5546.50    2155.838000
5548.13    2342.913000
5549.76    2029.320000
5551.40    2269.146000
5553.03    2243.886000
5554.67    2068.040000
5556.30    2211.078000
5557.93    2125.628000
5559.57    2062.639000
5561.20    1990.522000
5562.84    1973.135000
5564.47    1985.477000
5566.10    1909.132000
5567.74    1993.078000
5569.37    2056.838000
5571.00    1958.060000
5572.64    2076.341000
5574.27    2715.799000
5575.91    3506.959000
5577.54    2869.940000
5579.17    1493.247000
5580.81    1452.818000
5582.44    1671.661000
5584.07    1919.914000
5585.71    2355.458000
5587.34    2355.594000
5588.98    2312.895000
5590.61    2025.107000
5592.24    2223.583000
5593.88    2135.455000
5595.51    2011.703000
5597.15    1959.329000
5598.78    1981.263000
5600.41    2009.288000
5602.05    2044.599000
5603.68    2131.943000
5605.31    2078.627000
5606.95    2024.257000
5608.58    1983.620000
5610.22    2140.045000
5611.85    2253.209000
5613.48    2247.337000
5615.12    2178.249000
5616.75    2381.629000
5618.39    2217.805000
5620.02    2102.913000
5621.65    2018.312000
5623.29    2154.611000
5624.92    2163.117000
5626.56    2182.634000
5628.19    2219.544000
5629.82    2070.450000
5631.46    2088.651000
5633.09    2110.567000
5634.73    2132.455000
5636.36    2048.027000
5637.99    2013.732000
5639.63    2023.437000
5641.26    2139.547000
5642.89    2074.830000
5644.53    2095.623000
5646.16    2103.394000
5647.80    2025.490000
5649.43    1995.325000
5651.06    1954.208000
5652.70    1965.353000
5654.33    2289.761000
5655.96    2225.335000
5657.60    2112.090000
5659.23    2012.149000
5660.87    2227.869000
5662.50    2183.331000
5664.13    2156.126000
5665.77    2132.671000
5667.40    2119.803000
5669.03    2074.402000
5670.67    2033.137000
5672.30    1988.651000
5673.94    2024.395000
5675.57    2151.078000
5677.20    2187.124000
5678.84    2125.269000
5680.47    2039.884000
5682.11    1983.870000
5683.74    1916.213000
5685.37    1830.913000
5687.01    2149.836000
5688.64    2134.087000
5690.27    2100.082000
5691.91    2089.678000
5693.54    2160.586000
5695.18    2161.575000
5696.81    2134.652000
5698.44    2053.289000
5700.08    2104.359000
5701.71    2161.146000
5703.35    2174.563000
5704.98    1994.007000
5706.61    1959.123000
5708.25    2040.385000
5709.88    2157.425000
5711.52    2259.159000
5713.15    2093.323000
5714.78    2002.885000
5716.42    1952.632000
5718.05    2084.123000
5719.69    2163.095000
5721.32    2112.125000
5722.95    1973.118000
5724.59    2057.602000
5726.22    2021.097000
5727.85    2000.663000
5729.49    1994.431000
5731.12    2135.211000
5732.76    2075.919000
5734.39    2038.882000
5736.02    2041.769000
5737.66    2214.259000
5739.29    2205.446000
5740.93    2157.425000
5742.56    2054.160000
5744.19    2050.150000
5745.83    2053.106000
5747.46    2058.333000
5749.09    2079.425000
5750.73    2147.118000
5752.36    2124.888000
5753.99    2080.613000
5755.63    2029.168000
5757.26    1990.340000
5758.90    1942.125000
5760.53    1910.710000
5762.16    2034.859000
5763.80    2011.129000
5765.43    1983.007000
5767.07    1958.411000
5768.70    2049.074000
5770.33    2118.972000
5771.97    2139.854000
5773.60    2122.641000
5775.23    1964.336000
5776.87    1992.346000
5778.50    2088.490000
5780.14    2249.789000
5781.77    2276.751000
5783.40    2193.698000
5785.04    2110.226000
5786.67    2028.866000
5788.31    2103.178000
5789.94    2094.710000
5791.57    2070.150000
5793.21    2028.534000
5794.84    2074.136000
5796.48    2004.258000
5798.11    1975.728000
5799.74    2091.252000
5801.38    2275.715000
5803.01    2244.800000
5804.65    2189.428000
5806.28    2185.848000
5807.91    2042.912000
5809.55    1958.352000
5811.18    1896.543000
5812.81    1900.708000
5814.45    1957.687000
5816.08    2032.034000
5817.72    2089.046000
5819.35    1924.487000
5820.98    1939.915000
5822.62    1935.009000
5824.25    1920.394000
5825.89    2032.383000
5827.52    2121.709000
5829.15    2105.643000
5830.79    2003.341000
5832.42    1921.114000
5834.05    1979.211000
5835.69    1978.171000
5837.32    1908.697000
5838.96    1959.309000
5840.59    2024.134000
5842.22    2034.281000
5843.86    1959.406000
5845.49    2088.697000
5847.12    2123.375000
5848.76    2158.310000
5850.39    2227.638000
5852.03    2172.388000
5853.66    2161.520000
5855.29    2144.690000
5856.93    2093.696000
5858.56    2004.906000
5860.19    1862.698000
5861.83    1771.846000
5863.46    2022.652000
5865.10    2120.412000
5866.73    2136.854000
5868.36    2128.134000
5870.00    2151.526000
5871.63    2126.122000
5873.27    2111.394000
5874.90    2093.320000
5876.53    2020.979000
5878.17    2000.900000
5879.80    1918.272000
5881.44    1788.696000
5883.07    2032.985000
5884.70    1982.052000
5886.34    1948.711000
5887.97    1928.714000
5889.60    1860.660000
5891.24    1881.828000
5892.87    1938.997000
5894.51    2059.420000
5896.14    2054.229000
5897.77    2069.830000
5899.41    2084.136000
5901.04    2101.210000
5902.68    2052.508000
5904.31    2037.817000
5905.94    2038.226000
5907.58    2081.223000
5909.21    1872.929000
5910.85    1884.545000
5912.48    1964.643000
5914.11    2150.318000
5915.75    1988.887000
5917.38    1965.297000
5919.01    1978.411000
5920.65    1970.290000
5922.28    1996.112000
5923.92    1959.747000
5925.55    1895.792000
5927.18    1911.169000
5928.82    2155.691000
5930.45    2203.750000
5932.09    2128.524000
5933.72    2117.791000
5935.35    2043.012000
5936.99    2023.086000
5938.62    2052.466000
5940.25    1899.861000
5941.89    1994.887000
5943.52    2042.988000
5945.16    2035.993000
5946.79    2049.274000
5948.42    1946.364000
5950.06    1945.211000
5951.69    2152.180000
5953.32    2146.290000
5954.96    2050.661000
5956.59    1961.750000
5958.23    1920.916000
5959.86    1983.922000
5961.49    1872.881000
5963.13    1753.425000
5964.76    1733.939000
5966.40    1898.468000
5968.03    1981.478000
5969.66    2024.582000
5971.30    1977.651000
5972.93    1970.094000
5974.56    2041.030000
5976.20    2143.053000
5977.83    2221.796000
5979.47    2210.562000
5981.10    2099.517000
5982.73    1932.473000
5984.37    2053.481000
5986.00    2129.233000
5987.64    2090.254000
5989.27    1951.525000
5990.90    2045.200000
5992.54    2034.306000
5994.17    2054.073000
5995.81    2115.371000
5997.44    2181.786000
5999.07    2122.078000
6000.71    2100.879000
6002.34    2159.329000
6003.98    2079.851000
6005.61    2154.324000
6007.24    2233.358000
6008.88    2305.030000
6010.51    2139.596000
6012.14    2153.523000
6013.78    2197.549000
6015.41    2251.404000
6017.05    2130.644000
6018.68    2160.211000
6020.31    2202.730000
6021.95    2132.971000
6023.58    2166.423000
6025.21    2235.765000
6026.85    2289.189000
6028.48    2101.717000
6030.12    2078.479000
6031.75    2065.325000
6033.38    2044.125000
6035.02    1894.074000
6036.65    1987.823000
6038.28    1979.447000
6039.92    1893.141000
6041.55    1898.313000
6043.19    1938.418000
6044.82    1958.042000
6046.45    1956.670000
6048.09    2109.407000
6049.72    1997.346000
6051.36    2031.398000
6052.99    2313.863000
6054.62    2174.411000
6056.26    1989.798000
6057.89    1900.845000
6059.52    2023.292000
6061.16    2051.326000
6062.79    2103.981000
6064.43    2115.355000
6066.06    1995.343000
6067.69    1979.566000
6069.33    1779.996000
6070.96    1596.134000
6072.60    1695.449000
6074.23    1356.900000
6075.86    1299.015000
6077.50    1371.732000
6079.13    1741.966000
6080.77    1791.840000
6082.40    1921.884000
6084.03    2062.114000
6085.67    1797.963000
6087.30    1935.513000
6088.94    2023.722000
6090.57    2078.295000
6092.20    2059.874000
6093.84    2051.576000
6095.47    2000.331000
6097.10    1901.932000
6098.74    1802.216000
6100.37    1977.604000
6102.01    2020.426000
6103.64    1882.966000
6105.27    2120.508000
6106.91    2074.496000
6108.54    2047.528000
6110.18    2099.035000
6111.81    2233.244000
6113.44    2133.338000
6115.08    2034.416000
6116.71    2022.552000
6118.34    1944.641000
6119.98    1962.970000
6121.61    1979.533000
6123.24    1914.320000
6124.88    1977.794000
6126.51    1985.683000
6128.15    1968.792000
6129.78    1919.533000
6131.41    1932.708000
6133.05    1942.261000
6134.68    1938.948000
6136.32    1840.027000
6137.95    1974.385000
6139.58    2031.414000
6141.22    2044.711000
6142.85    2111.795000
6144.48    1961.267000
6146.12    1954.624000
6147.75    2072.806000
6149.39    2013.053000
6151.02    1991.029000
6152.65    2024.018000
6154.29    2136.110000
6155.92    2131.061000
6157.56    2069.818000
6159.19    2037.725000
6160.82    2063.333000
6162.46    1965.389000
6164.09    1994.036000
6165.73    1995.631000
6167.36    1904.625000
6168.99    1980.285000
6170.63    1922.564000
6172.26    1850.317000
6173.90    1816.458000
6175.53    2023.237000
6177.16    2043.655000
6178.80    2024.307000
6180.43    2077.222000
6182.06    1990.932000
6183.70    1970.445000
6185.33    1971.311000
6186.97    1955.444000
6188.60    2024.273000
6190.23    1975.024000
6191.87    1861.795000
6193.50    1899.854000
6195.14    2030.333000
6196.77    2061.101000
6198.40    2011.969000
6200.04    2062.078000
6201.67    1916.679000
6203.30    1848.370000
6204.94    1859.582000
6206.57    1987.599000
6208.20    1955.625000
6209.84    1951.068000
6211.47    2006.110000
6213.11    2024.726000
6214.74    1935.345000
6216.38    1880.693000
6218.01    1931.035000
6219.64    1976.779000
6221.28    2050.438000
6222.91    2083.082000
6224.54    1971.371000
6226.18    1907.510000
6227.81    1912.392000
6229.44    1949.689000
6231.08    2084.729000
6232.71    2081.766000
6234.35    2105.050000
6235.98    2134.939000
6237.61    2162.648000
6239.25    2111.791000
6240.88    2084.425000
6242.52    2056.110000
6244.15    1933.736000
6245.78    1966.969000
6247.42    1975.416000
6249.05    1964.029000
6250.69    1935.785000
6252.32    1981.142000
6253.95    2025.486000
6255.59    2072.179000
6257.22    2047.392000
6258.85    1998.637000
6260.49    1979.035000
6262.12    2008.481000
6263.76    2197.751000
6265.39    2174.676000
6267.02    2115.479000
6268.66    2010.821000
6270.29    1937.389000
6271.93    1963.232000
6273.56    1992.444000
6275.19    2006.046000
6276.83    1871.617000
6278.46    1866.238000
6280.10    1878.287000
6281.73    1858.967000
6283.36    1872.409000
6285.00    1938.299000
6286.63    2008.129000
6288.26    1990.266000
6289.90    1846.240000
6291.53    1833.258000
6293.17    1866.199000
6294.80    1792.908000
6296.43    1959.483000
6298.07    2121.887000
6299.70    2279.793000
6301.34    2197.202000
6302.97    2042.163000
6304.60    1951.644000
6306.24    1912.044000
6307.87    2030.499000
6309.50    2020.763000
6311.14    1983.816000
6312.77    1917.332000
6314.41    1864.328000
6316.04    1930.172000
6317.67    1973.127000
6319.31    1971.197000
6320.94    1868.500000
6322.57    1820.858000
6324.21    1775.239000
6325.84    1722.790000
6327.48    1761.273000
6329.11    1870.916000
6330.74    1975.906000
6332.38    2019.153000
6334.01    2033.781000
6335.65    2009.292000
6337.28    1978.326000
6338.91    1997.248000
6340.55    2073.960000
6342.18    2066.969000
6343.81    2012.954000
6345.45    1863.492000
6347.08    1834.625000
6348.72    1868.061000
6350.35    1927.797000
6351.98    1833.884000
6353.62    1715.968000
6355.25    1703.365000
6356.89    1772.140000
6358.52    1898.025000
6360.15    1794.477000
6361.79    1797.100000
6363.42    1927.709000
6365.06    2039.972000
6366.69    1928.799000
6368.32    1825.309000
6369.96    1744.375000
6371.59    1769.332000
6373.22    1733.834000
6374.86    1717.082000
6376.49    1766.870000
6378.13    1776.206000
6379.76    1800.535000
6381.39    1826.501000
6383.03    1859.753000
6384.66    1774.109000
6386.30    1763.433000
6387.93    1779.195000
6389.56    1853.217000
6391.20    1915.221000
6392.83    2000.265000
6394.46    2064.166000
6396.10    1863.111000
6397.73    1814.765000
6399.37    1844.911000
6401.00    1904.446000
6402.63    1805.976000
6404.27    1893.308000
6405.90    1950.896000
6407.53    1983.225000
6409.17    1805.263000
6410.80    1687.530000
6412.44    1615.406000
6414.07    1584.469000
6415.70    1758.647000
6417.34    1788.503000
6418.97    1798.184000
6420.61    1791.705000
6422.24    1873.756000
6423.87    1900.194000
6425.51    1897.983000
6427.14    1849.445000
6428.77    1794.769000
6430.41    1705.765000
6432.04    1646.259000
6433.68    1693.586000
6435.31    1794.632000
6436.94    1733.118000
6438.58    1644.777000
6440.21    1613.084000
6441.85    1630.866000
6443.48    1775.518000
6445.11    1928.940000
6446.75    1829.721000
6448.38    1798.445000
6450.02    1819.164000
6451.65    1849.470000
6453.28    1720.775000
6454.92    1691.899000
6456.55    1714.008000
6458.19    1773.998000
6459.82    2018.196000
6461.45    1967.027000
6463.09    1884.677000
6464.72    1766.230000
6466.35    1851.400000
6467.99    1871.800000
6469.62    1866.606000
6471.26    1833.133000
6472.89    1739.375000
6474.52    1672.406000
6476.16    1661.681000
6477.79    1760.424000
6479.42    1841.100000
6481.06    1818.499000
6482.69    1816.449000
6484.33    1918.377000
6485.96    1850.213000
6487.59    1835.758000
6489.23    1833.166000
6490.86    1845.975000
6492.49    1779.243000
6494.13    1734.816000
6495.76    1711.100000
6497.40    1804.089000
6499.03    1848.688000
6500.66    1892.290000
6502.30    1913.759000
6503.93    1717.200000
6505.57    1897.460000
6507.20    1962.314000
6508.83    1945.458000
6510.47    1623.631000
6512.10    1664.280000
6513.73    1754.666000
6515.37    1893.591000
6517.00    1556.186000
6518.64    1709.900000
6520.27    1810.605000
6521.90    1857.078000
6523.54    1758.621000
6525.17    1833.993000
6526.81    1874.938000
6528.44    1849.080000
6530.07    1852.786000
6531.71    1802.296000
6533.34    1774.265000
6534.98    1823.704000
6536.61    1778.302000
6538.24    1818.975000
6539.88    1840.004000
6541.51    1737.666000
6543.15    1813.842000
6544.78    1819.806000
6546.41    1808.986000
6548.05    1824.843000
6549.68    1872.304000
6551.31    1821.760000
6552.95    1748.848000
6554.58    1859.798000
6556.22    1763.778000
6557.85    1719.859000
6559.48    1702.084000
6561.12    1766.002000
6562.75    1904.714000
6564.39    1908.010000
6566.02    1804.836000
6567.65    1870.350000
6569.29    1805.211000
6570.92    1790.796000
6572.55    1832.010000
6574.19    1931.373000
6575.82    1918.750000
6577.45    1865.899000
6579.09    1752.693000
6580.72    1784.005000
6582.36    1692.807000
6583.99    1637.008000
6585.62    1689.602000
6587.26    1691.451000
6588.89    1844.509000
6590.53    1974.078000
6592.16    1967.075000
6593.79    1770.920000
6595.43    1817.298000
6597.06    1904.939000
6598.69    1930.176000
6600.33    1690.654000
6601.96    1678.277000
6603.60    1743.902000
6605.23    1816.372000
6606.86    1930.645000
6608.50    1873.203000
6610.13    1736.234000
6611.77    1783.320000
6613.40    1805.638000
6615.03    1811.122000
6616.67    1800.187000
6618.30    1733.034000
6619.94    1843.715000
6621.57    1922.013000
6623.20    1971.858000
6624.84    1698.457000
6626.47    1699.400000
6628.10    1715.429000
6629.74    1753.238000
6631.37    1818.990000
6633.01    1846.631000
6634.64    1828.280000
6636.27    1724.838000
6637.91    1789.108000
6639.54    1815.951000
6641.18    1845.089000
6642.81    1907.994000
6644.44    1900.015000
6646.08    1835.955000
6647.71    1793.718000
6649.35    1912.744000
6650.98    1912.531000
6652.61    1841.246000
6654.25    1762.450000
6655.88    1811.706000
6657.51    1852.544000
6659.15    1808.071000
6660.78    1731.303000
6662.42    1798.541000
6664.05    1838.466000
6665.68    1830.346000
6667.32    1795.115000
6668.95    1951.481000
6670.59    1833.005000
6672.22    1785.964000
6673.85    1800.902000
6675.49    1825.303000
6677.12    1875.646000
6678.75    1905.858000
6680.39    1917.937000
6682.02    1903.001000
6683.65    1845.807000
6685.29    1802.714000
6686.92    1789.446000
6688.56    1737.561000
6690.19    1733.473000
6691.82    1708.440000
6693.46    1619.417000
6695.09    1619.688000
6696.73    1567.870000
6698.36    1562.391000
6699.99    1784.283000
6701.63    1710.527000
6703.26    1712.342000
6704.90    1752.770000
6706.53    1916.578000
6708.16    1924.277000
6709.80    1884.301000
6711.43    1816.315000
6713.06    1692.210000
6714.70    1768.865000
6716.33    1726.793000
6717.97    1628.200000
6719.60    1914.857000
6721.23    1755.923000
6722.87    1804.442000
6724.50    2018.502000
6726.14    1683.204000
6727.77    1777.186000
6729.40    1821.770000
6731.04    1811.650000
6732.67    1807.515000
6734.31    1804.876000
6735.94    1820.528000
6737.57    1874.491000
6739.21    1897.992000
6740.84    1875.847000
6742.47    1811.593000
6744.11    1658.321000
6745.74    1842.004000
6747.38    1850.830000
6749.01    1861.549000
6750.64    1982.915000
6752.28    1803.037000
6753.91    1723.747000
6755.55    1684.729000
6757.18    1745.774000
6758.81    1711.992000
6760.45    1707.409000
6762.08    1714.666000
6763.71    1754.202000
6765.35    1783.181000
6766.98    1790.064000
6768.62    1780.872000
6770.25    1760.098000
6771.88    1769.987000
6773.52    1758.569000
6775.15    1728.557000
6776.78    1719.313000
6778.42    1524.178000
6780.05    1540.452000
6781.69    1784.043000
6783.32    1816.421000
6784.95    1847.462000
6786.59    1879.098000
6788.22    1921.367000
6789.85    2026.457000
6791.49    1919.438000
6793.12    1839.857000
6794.76    1857.423000
6796.39    1851.552000
6798.02    1744.176000
6799.66    1671.100000
6801.29    1752.193000
6802.93    1671.421000
6804.56    1706.602000
6806.19    1746.800000
6807.83    1704.830000
6809.46    1708.862000
6811.10    1735.024000
6812.73    1738.450000
6814.36    1526.069000
6816.00    1602.226000
6817.63    1694.242000
6819.27    1778.906000
6820.90    1651.663000
6822.53    1614.639000
6824.17    1705.959000
6825.80    1879.091000
6827.44    1811.920000
6829.07    1790.001000
6830.70    1737.347000
6832.34    1649.762000
6833.97    1687.711000
6835.60    1649.205000
6837.24    1643.255000
6838.87    1690.519000
6840.51    1584.893000
6842.14    1543.549000
6843.77    1557.503000
6845.41    1678.911000
6847.04    1550.225000
6848.67    1595.116000
6850.31    1652.077000
6851.94    1696.174000
6853.58    1645.466000
6855.21    1708.225000
6856.84    1753.801000
6858.48    1641.211000
6860.11    1371.336000
6861.74    1522.704000
6863.38    1749.198000
6865.01    1661.901000
6866.65    1638.934000
6868.28    1646.880000
6869.91    1665.701000
6871.55    1693.713000
6873.18    1834.979000
6874.82    1719.052000
6876.45    1453.401000
6878.08    1566.526000
6879.72    1742.771000
6881.35    1775.758000
6882.98    1688.826000
6884.62    1661.809000
6886.25    1591.981000
6887.89    1513.123000
6889.52    1422.333000
6891.15    1653.879000
6892.79    1583.947000
6894.42    1532.600000
6896.06    1538.419000
6897.69    1491.864000
6899.32    1389.666000
6900.96    1356.715000
6902.59    1518.068000
6904.23    1414.847000
6905.86    1427.093000
6907.49    1469.466000
6909.13    1558.659000
6910.76    1636.726000
6912.40    1589.669000
6914.03    1503.677000
6915.66    1402.552000
6917.30    1447.298000
6918.93    1490.425000
6920.56    1519.583000
6922.20    1421.315000
6923.83    1598.300000
6925.47    1643.546000
6927.10    1610.608000
6928.73    1482.218000
6930.37    1374.365000
6932.00    1430.746000
6933.64    1612.079000
6935.27    1468.647000
6936.90    1598.936000
6938.54    1633.677000
6940.17    1564.354000
6941.80    1437.510000
6943.44    1448.228000
6945.07    1466.273000
6946.70    1494.685000
6948.34    1469.490000
6949.97    1440.407000
6951.61    1410.811000
6953.24    1384.167000
6954.88    1447.595000
6956.51    1437.993000
6958.14    1423.384000
6959.78    1430.832000
6961.41    1395.986000
6963.04    1387.591000
6964.68    1398.068000
6966.31    1483.578000
6967.94    1495.098000
6969.58    1457.474000
6971.21    1414.398000
6972.85    1486.528000
6974.48    1399.024000
6976.11    1395.542000
6977.75    1427.463000
6979.38    1417.504000
6981.02    1374.232000
6982.65    1432.251000
6984.28    1561.743000
6985.92    1624.714000
6987.55    1476.298000
6989.19    1398.457000
6990.82    1385.802000
6992.45    1429.452000
6994.09    1428.510000
6995.72    1382.823000
6997.35    1274.079000
6998.99    1407.287000
7000.62    1393.570000
7002.26    1400.770000
7003.89    1476.426000
7005.52    1525.608000
7007.16    1508.283000
7008.79    1482.470000
7010.43    1461.620000
7012.06    1401.453000
7013.69    1401.510000
7015.33    1405.785000
7016.96    1384.568000
7018.60    1379.408000
7020.23    1371.068000
7021.86    1356.223000
7023.50    1311.082000
7025.13    1323.290000
7026.76    1413.517000
7028.40    1524.050000
7030.03    1443.167000
7031.67    1457.238000
7033.30    1467.145000
7034.93    1471.734000
7036.57    1465.367000
7038.20    1457.505000
7039.84    1504.489000
7041.47    1603.767000
7043.10    1466.999000
7044.74    1375.500000
7046.37    1344.871000
7048.00    1397.218000
7049.64    1481.235000
7051.27    1392.378000
7052.90    1319.864000
7054.54    1293.202000
7056.17    1411.377000
7057.81    1399.030000
7059.44    1377.508000
7061.07    1375.891000
7062.71    1411.339000
7064.34    1385.796000
7065.98    1350.123000
7067.61    1320.286000
7069.24    1409.835000
7070.88    1466.724000
7072.51    1492.456000
7074.15    1396.540000
7075.78    1447.769000
7077.41    1424.778000
7079.05    1381.671000
7080.68    1467.034000
7082.31    1507.123000
7083.95    1522.773000
7085.58    1517.635000
7087.22    1429.643000
7088.85    1432.396000
7090.48    1462.841000
7092.12    1513.448000
7093.75    1355.375000
7095.39    1418.816000
7097.02    1445.714000
7098.65    1430.422000
7100.29    1454.030000
7101.92    1412.976000
7103.56    1365.921000
7105.19    1311.109000
7106.82    1476.638000
7108.46    1431.722000
7110.09    1380.614000
7111.72    1365.224000
7113.36    1378.364000
7114.99    1501.461000
7116.63    1572.145000
7118.26    1409.272000
7119.89    1366.611000
7121.53    1428.159000
7123.16    1491.683000
7124.80    1441.068000
7126.43    1371.633000
7128.06    1400.197000
7129.70    1450.508000
7131.33    1384.065000
7132.96    1372.032000
7134.60    1411.976000
7136.23    1470.502000
7137.87    1401.996000
7139.50    1437.491000
7141.13    1438.167000
7142.77    1410.380000
7144.40    1407.232000
7146.03    1402.354000
7147.67    1378.789000
7149.30    1331.749000
7150.94    1364.097000
7152.57    1352.594000
7154.20    1351.169000
7155.84    1372.636000
7157.47    1370.020000
7159.10    1364.659000
7160.74    1337.013000
7162.37    1263.289000
7164.01    1251.988000
7165.64    1330.535000
7167.27    1397.663000
7168.91    1397.374000
7170.54    1413.169000
7172.18    1421.934000
7173.81    1416.055000
7175.44    1360.481000
7177.08    1375.073000
7178.71    1392.797000
7180.35    1396.778000
7181.98    1304.366000
7183.61    1283.440000
7185.25    1284.207000
7186.88    1291.216000
7188.52    1283.424000
7190.15    1306.034000
7191.78    1348.779000
7193.42    1402.989000
7195.05    1342.193000
7196.69    1230.799000
7198.32    1180.627000
7199.95    1185.249000
7201.59    1286.541000
7203.22    1261.532000
7204.85    1236.727000
7206.49    1217.058000
7208.12    1418.437000
7209.76    1421.369000
7211.39    1395.521000
7213.02    1337.813000
7214.66    1264.036000
7216.29    1249.543000
7217.92    1252.339000
7219.56    1290.392000
7221.19    1264.256000
7222.83    1219.182000
7224.46    1187.931000
7226.09    1234.677000
7227.73    1281.998000
7229.36    1238.202000
7230.99    1160.133000
7232.63    1053.771000
7234.26    1047.366000
7235.90    1076.736000
7237.53    1110.280000
7239.16    1033.298000
7240.80    1083.097000
7242.43    1109.610000
7244.07    1116.367000
7245.70    992.523400
7247.33    1039.437000
7248.97    1132.357000
7250.60    1270.627000
7252.23    1144.175000
7253.87    1101.457000
7255.50    1087.078000
7257.14    1111.331000
7258.77    1051.631000
7260.40    1058.157000
7262.04    1084.374000
7263.67    1145.926000
7265.31    1104.276000
7266.94    1091.682000
7268.57    1083.906000
7270.21    1085.037000
7271.84    1076.411000
7273.48    997.170100
7275.11    949.899800
7276.74    1065.101000
7278.38    1036.667000
7280.01    1039.517000
7281.65    1063.850000
7283.28    1172.253000
7284.91    1146.842000
7286.55    1133.490000
7288.18    1121.656000
7289.81    1101.512000
7291.45    1150.283000
7293.08    1146.561000
7294.72    1108.255000
7296.35    1015.814000
7297.98    1026.978000
7299.62    1017.017000
7301.25    988.753500
7302.89    975.754500
7304.52    965.155800
7306.15    964.059800
7307.79    973.202000
7309.42    1123.586000
7311.05    1095.167000
7312.69    1059.838000
7314.32    1021.864000
7315.95    993.124600
7317.59    1053.967000
7319.22    1086.107000
7320.86    1043.462000
7322.49    984.268300
7324.12    1062.781000
7325.76    1131.682000
7327.39    1109.954000
7329.03    1175.738000
7330.66    1178.449000
7332.29    1164.512000
7333.93    1150.634000
7335.56    1098.999000
7337.19    1104.018000
7338.83    1134.227000
7340.46    1213.561000
7342.10    1253.185000
7343.73    1236.861000
7345.36    1183.584000
7347.00    1042.517000
7348.63    1049.117000
7350.27    1041.054000
7351.90    1021.298000
7353.53    1068.307000
7355.17    973.705900
7356.80    1019.257000
7358.44    1208.676000
7360.07    1123.057000
7361.70    1083.106000
7363.34    1096.567000
7364.97    1192.094000
7366.60    1015.119000
7368.24    1071.585000
7369.87    1141.317000
7371.51    1215.125000
7373.14    1223.585000
7374.77    1147.732000
7376.41    1070.178000
7378.04    1019.836000
7379.68    1079.068000
7381.31    1031.193000
7382.94    1005.825000
7384.58    1183.081000
7386.21    1086.791000
7387.85    1007.712000
7389.48    962.554000
7391.11    1131.920000
7392.75    1207.348000
7394.38    1170.186000
7396.01    1087.017000
7397.65    1104.592000
7399.28    1141.719000
7400.91    1149.996000
7402.55    1138.939000
7404.18    1121.134000
7405.82    1124.971000
7407.45    1076.622000
7409.09    977.898300
7410.72    1050.045000
7412.35    1066.293000
7413.99    1087.616000
7415.62    1121.633000
7417.25    1081.672000
7418.89    1076.497000
7420.52    1087.711000
7422.15    1129.003000
7423.79    1050.829000
7425.42    1122.803000
7427.06    1166.242000
7428.69    1098.607000
7430.32    960.075000
7431.96    960.902400
7433.59    999.732300
7435.23    1093.692000
7436.86    1073.809000
7438.49    1052.471000
7440.13    1044.836000
7441.76    1133.901000
7443.40    1080.291000
7445.03    1075.549000
7446.66    1084.738000
7448.30    1047.411000
7449.93    1057.550000
7451.56    1070.929000
7453.20    1089.897000
7454.83    1215.335000
7456.47    1167.094000
7458.10    1121.111000
7459.73    1070.463000
7461.37    1046.312000
7463.00    1071.606000
7464.64    1046.040000
7466.27    958.529700
7467.90    975.018700
7469.54    1026.629000
7471.17    1108.160000
7472.81    1249.135000
7474.44    1139.620000
7476.07    1088.914000
7477.71    1065.355000
7479.34    1096.084000
7480.97    1080.640000
7482.61    1080.027000
7484.24    1093.039000
7485.88    1148.312000
7487.51    1174.730000
7489.14    1165.396000
7490.78    1149.154000
7492.41    1153.498000
7494.05    1105.132000
7495.68    1053.199000
7497.31    997.793300
7498.95    951.692400
7500.58    994.134100
7502.21    1016.924000
7503.85    1027.770000
7505.48    1028.440000
7507.12    1077.415000
7508.75    1083.885000
7510.38    1057.623000
7512.02    990.104100
7513.65    1062.928000
7515.28    1099.363000
7516.92    1099.869000
7518.55    1054.604000
7520.19    1108.350000
7521.82    1149.817000
7523.45    1176.257000
7525.09    1082.140000
7526.72    1144.582000
7528.35    1205.455000
7529.99    1248.286000
7531.62    1153.524000
7533.26    1126.053000
7534.89    1092.712000
7536.52    1013.635000
7538.16    1037.680000
7539.79    1090.758000
7541.43    1131.957000
7543.06    1096.917000
7544.69    1108.124000
7546.33    1098.756000
7547.96    1076.708000
7549.60    1018.279000
7551.23    1074.925000
7552.86    1107.629000
7554.50    1126.608000
7556.13    1120.399000
7557.77    1063.406000
7559.40    1045.363000
7561.03    1051.811000
7562.67    1130.367000
7564.30    1104.615000
7565.93    1098.113000
7567.57    1108.636000
7569.20    1286.097000
7570.84    1226.906000
7572.47    1165.977000
7574.10    1107.002000
7575.74    1196.800000
7577.37    1267.985000
7579.01    1265.450000
7580.64    1125.096000
7582.27    1521.930000
7583.91    -4344.259000
7585.54    -9967.505000
7587.17    -13296.950000
7588.81     0.000000
7590.44     0.000000
7592.08     0.000000
7593.71     0.000000
7595.34     0.000000
7596.98     0.000000
