#Wavelength     Flux    Sky Spectrum 
#[Angstrom]   [Counts]     [Counts]
4579.10     6.371383     2.923545
4579.71    11.855844     2.101636
4580.31     7.868392     1.802663
4580.92     6.978415     2.605831
4581.53    10.766987     2.795576
4582.14     9.799458     2.006536
4582.74     7.288737     2.900143
4583.35     6.920642     2.898662
4583.96    10.637721     3.739715
4584.56    10.889303     3.343892
4585.17     5.707092     0.891896
4585.78     6.554597     1.746070
4586.39     9.093046     3.018054
4586.99     7.011005     2.317536
4587.60     5.035079     2.519925
4588.21     8.543270     3.988081
4588.81    12.660276     2.223583
4589.42    13.966153     1.612147
4590.03    13.929193     3.137347
4590.64    11.668187     4.070786
4591.24     8.896623     4.126500
4591.85     9.950553     5.059208
4592.46     8.815289     2.834155
4593.06     6.287092     1.474852
4593.67     1.614325     2.723225
4594.28    -0.575460     4.124650
4594.89     5.662505     4.014931
4595.49     9.616539     3.539661
4596.10    15.558238     0.884551
4596.71    14.756168     0.705423
4597.31     6.506310     3.396630
4597.92     4.962342     3.024873
4598.53    10.317291     1.151645
4599.14    15.525343     1.949113
4599.74    11.197214     3.787849
4600.35     3.964176     3.767166
4600.96     5.088347     3.013371
4601.56     7.426929     4.024950
4602.17     9.925652     2.825962
4602.78     4.813624     5.217023
4603.38     3.988916     6.050790
4603.99    15.932209     0.688248
4604.60    18.674107     0.792430
4605.21    10.630272     1.765807
4605.81     7.186354     2.492036
4606.42     7.908509     3.252315
4607.03     9.936856     2.760633
4607.63    15.207993     1.864423
4608.24     6.738037     5.452417
4608.85    13.704772     4.188202
4609.46    19.540768     1.212804
4610.06    11.723151     2.542204
4610.67    10.994768     4.004801
4611.28    11.301928     1.405961
4611.88     8.794324     1.821681
4612.49     5.140849     3.956431
4613.10     4.231653     3.505894
4613.71     6.085151     2.003619
4614.31     6.074137     3.037767
4614.92     5.898723     1.311510
4615.53     6.213811     2.432386
4616.13     5.504169     3.860234
4616.74     6.689941     1.756332
4617.35    11.910635     1.887912
4617.96     8.455123     3.708265
4618.56     6.089534     3.605683
4619.17     8.191613     2.775618
4619.78     8.586102     3.163507
4620.38     5.986780     4.011909
4620.99     6.876548     4.261073
4621.60     6.711937     2.032839
4622.21    12.435251     0.537451
4622.81    14.777267     1.478236
4623.42     6.319577     3.171913
4624.03     4.124356     4.768786
4624.63     2.736639     6.380358
4625.24     5.469326     3.237125
4625.85     6.339069     0.781201
4626.46     7.228292     2.173200
4627.06    14.956626     2.002784
4627.67    10.621359     2.089133
4628.28     6.424587     1.235511
4628.88     5.785379     1.494681
4629.49     6.377687     3.797580
4630.10     9.393787     4.929872
4630.71    13.054338     3.091499
4631.31     9.285021     3.905529
4631.92     8.716967     2.540714
4632.53    12.329870     0.758330
4633.13    11.090888     2.469452
4633.74     6.968259     4.006864
4634.35    11.857725     2.355381
4634.95     6.474373     2.233145
4635.56     6.735537     3.907083
4636.17    14.214212     3.316870
4636.78    11.548582     0.946961
4637.38     7.207829     1.946711
4637.99     8.203762     1.116254
4638.60     9.292874     2.267875
4639.20     6.130288     4.946338
4639.81     2.732202     4.548546
4640.42     3.977281     2.010472
4641.03     5.597550     3.387938
4641.63     7.226282     5.597978
4642.24     5.198994     5.814644
4642.85     2.893017     4.535326
4643.45     7.980893     2.753739
4644.06    15.102386     1.013539
4644.67     7.718463     1.978425
4645.28     9.202093     0.602150
4645.88    13.062987     1.101887
4646.49     5.834065     4.503918
4647.10     1.053139     3.956899
4647.70     9.364522     2.046204
4648.31    13.445932     3.339120
4648.92    11.843730     3.836890
4649.53    11.023335     2.664552
4650.13     9.277104     3.263991
4650.74     4.922042     4.985798
4651.35    11.333235     3.561364
4651.95    13.034757     2.235557
4652.56    12.267595     1.777664
4653.17    14.615205     2.436878
4653.78    13.697142     4.047247
4654.38     9.052358     3.252269
4654.99    12.835706     1.447929
4655.60    12.450975     0.778450
4656.20    12.199239     1.273383
4656.81    14.686436     2.250446
4657.42    10.009481     3.000589
4658.03    10.034980     2.138290
4658.63     7.976191     2.080437
4659.24     7.248441     1.352828
4659.85     7.792947     1.521194
4660.45     5.698272     5.806603
4661.06     5.736294    10.022250
4661.67    11.526529     5.630763
4662.28    13.976721     2.050176
4662.88    11.376854     2.448662
4663.49     8.341372     2.955418
4664.10     9.301370     3.107257
4664.70    15.304705     5.003325
4665.31    17.099972     2.874975
4665.92    12.383886     1.948361
4666.53    10.080780     4.033910
4667.13    12.265661     6.537633
4667.74    10.976596     8.001091
4668.35     7.070882     7.163496
4668.95     2.420009     6.703441
4669.56     8.044791     3.818618
4670.17    12.832499     2.167050
4670.77     7.300862     4.178872
4671.38     6.013483     4.004437
4671.99     5.787374     4.218154
4672.60     7.636698     2.208307
4673.20    10.171405     0.445641
4673.81     8.967343     1.640168
4674.42     5.974987     2.964589
4675.02     7.918324     1.929865
4675.63     6.075021     4.391988
4676.24     3.442153     4.481822
4676.85     3.124085     4.659379
4677.45     4.420897     5.950418
4678.06     6.073129     3.883199
4678.67     7.635091     2.171158
4679.27     9.993190     1.682470
4679.88     7.970742     3.167780
4680.49     5.808896     3.928040
4681.10     7.246819     2.794901
4681.70     7.999632     2.000344
4682.31     9.684000     0.970836
4682.92    10.125985     2.235074
4683.52     6.141884     3.429097
4684.13     6.817091     2.372748
4684.74    10.638979     0.898567
4685.35     4.145908     1.888388
4685.95     6.858971     4.555973
4686.56     8.906725     4.888585
4687.17     9.997346     2.576571
4687.77    12.874007     0.630508
4688.38    13.956187     1.174190
4688.99    12.213504     2.897505
4689.60    10.287591     3.120645
4690.20    10.149136     2.860212
4690.81    12.242771     3.370919
4691.42    12.406976     4.158690
4692.02     7.607707     3.933532
4692.63     4.022470     2.997926
4693.24     6.578116     3.837100
4693.85     9.903265     3.236873
4694.45    11.737992     1.070352
4695.06     9.839894     1.649202
4695.67     4.964267     6.138588
4696.27     7.571692     8.255867
4696.88     7.201204     4.920660
4697.49     4.437833     4.720784
4698.10     7.177915     3.360249
4698.70    10.887481     0.126911
4699.31     7.997799     3.982208
4699.92    12.205126     3.405072
4700.52    12.738153     2.520008
4701.13    11.921697     4.285136
4701.74    11.519984     4.425096
4702.35     9.858929     1.666942
4702.95    10.881037     1.004271
4703.56    14.255965     0.957770
4704.17    15.838739     1.418081
4704.77    12.769767     2.918701
4705.38    11.555526     2.117040
4705.99    12.584511     0.118876
4706.59     7.110823     3.742403
4707.20    11.273014     4.532309
4707.81    14.564894     2.271838
4708.42    12.733240     3.283604
4709.02     8.551124     4.751402
4709.63     7.377185     3.035545
4710.24    14.502168     4.982841
4710.84    13.592770     3.079782
4711.45     9.208783     5.802751
4712.06     7.819753     7.881660
4712.67     9.753639     3.758985
4713.27    12.038008     0.986621
4713.88    11.826921     2.735505
4714.49    14.116304     3.232383
4715.09    10.717589     2.713457
4715.70     8.038445     3.723284
4716.31     8.425333     5.114783
4716.92     5.001140     3.944555
4717.52     8.518406     2.621927
4718.13     8.629394     6.978033
4718.74    12.148570     6.127521
4719.34    12.346148     1.862375
4719.95     8.093904     2.320661
4720.56    11.992392     3.993329
4721.17     8.749535     4.033383
4721.77     8.063105     4.128363
4722.38    10.023061     3.228421
4722.99     9.237495     1.325542
4723.59     8.232907     1.259377
4724.20    10.056637     3.910749
4724.81     6.207538     4.489731
4725.42     9.738306     1.562311
4726.02    11.806597     2.394697
4726.63     9.725958     3.495131
4727.24     8.485742     2.352014
4727.84     4.888458     6.924031
4728.45    10.863295     3.781857
4729.06    10.007944     4.166429
4729.67     8.176230     3.858890
4730.27    10.352747     2.274705
4730.88     9.961199     5.198151
4731.49    10.003413     5.090602
4732.09     9.861228     4.333609
4732.70    10.426827     3.053309
4733.31     5.254384     3.997679
4733.92    -0.385642     6.448892
4734.52     4.514030     5.845347
4735.13    11.291494     3.228742
4735.74    14.326660     2.843217
4736.34    11.511759     3.023532
4736.95     7.660859     3.111705
4737.56     8.935856     2.731122
4738.17    11.960053     2.033807
4738.77     9.490430     3.866662
4739.38    17.889254     3.201230
4739.99    16.562149     3.963801
4740.59     9.097130     5.014196
4741.20    10.752439     3.720798
4741.81    14.013144     2.998130
4742.41    12.919665     3.588093
4743.02     7.515315     6.027259
4743.63    10.145658     3.613519
4744.24    11.958814     0.719984
4744.84     8.057827     2.171176
4745.45    11.955009     2.006570
4746.06     9.772040     2.036145
4746.66     8.337658     1.458617
4747.27    10.340391     0.544771
4747.88    10.416374     1.960048
4748.49    10.625196     3.971207
4749.09    15.114866     2.064712
4749.70     7.451473     2.691692
4750.31     8.315168     3.113425
4750.91    11.645636     3.138172
4751.52    11.251795     4.700206
4752.13    13.131648     5.934349
4752.74    13.046703     3.321683
4753.34    12.045644     0.887345
4753.95     6.998227     3.152552
4754.56     5.670492     5.830829
4755.16    14.176107     4.037896
4755.77    20.875223     0.912863
4756.38    13.548132     1.847282
4756.99    15.291491     2.079798
4757.59    13.052940     2.270674
4758.20     9.754284     3.909245
4758.81    14.469085     4.990277
4759.41    16.873495     3.965673
4760.02    10.539838     3.255056
4760.63    12.435857     1.222553
4761.24    14.027414     2.322595
4761.84    10.167160     4.529325
4762.45     8.069846     3.637300
4763.06    10.001031     1.999224
4763.66     9.834246     2.599191
4764.27    11.856201     4.699104
4764.88    10.002680     4.162593
4765.49    10.825948     2.873971
4766.09    16.183214     4.357700
4766.70    12.181822     5.985740
4767.31     9.909479     5.234516
4767.91    11.452546     4.654338
4768.52    14.878224     2.411152
4769.13    11.151427     3.472161
4769.74     3.984123     8.114717
4770.34     9.716202     5.207873
4770.95     7.490760     4.910127
4771.56     4.503541     4.062605
4772.16     9.636314     2.196460
4772.77    14.113081     2.329024
4773.38    10.792792     4.128566
4773.99    10.126936     4.958722
4774.59     7.830940     5.075366
4775.20     6.404179     4.630862
4775.81     8.131171     3.208583
4776.41    10.298216     1.795978
4777.02     9.959389     2.033839
4777.63     9.019277     3.585641
4778.23     9.660299     6.274444
4778.84    10.118136     7.099830
4779.45     9.971055     4.682878
4780.06     9.992134     1.532917
4780.66     9.023032     0.990800
4781.27     6.269328     2.656202
4781.88     7.784423     3.389801
4782.48    17.187649     1.942768
4783.09    19.294798     1.006130
4783.70    10.107239     2.193333
4784.31     9.030699     2.985930
4784.91     7.241286     2.951987
4785.52     8.534959     3.320150
4786.13    14.232285     1.801578
4786.73    14.762506     1.707719
4787.34     8.709323     5.177732
4787.95     9.807309     4.262243
4788.56    10.033920     2.247610
4789.16    10.852329     2.411153
4789.77    12.956785     3.229308
4790.38    14.147685     2.795542
4790.98    13.979707     1.979349
4791.59    12.581782     1.957618
4792.20     8.401907     2.438550
4792.81    10.782112     4.422914
4793.41    17.223293     4.263864
4794.02    17.281631     1.720021
4794.63    12.046356     1.989113
4795.23    11.318548     2.723577
4795.84     8.034353     4.094185
4796.45     8.096197     2.543589
4797.06     9.981528     1.130874
4797.66     7.724583     3.236712
4798.27     8.638540     3.143022
4798.88    15.037588     0.967774
4799.48    14.231977     3.335256
4800.09    11.088344     5.166000
4800.70    10.833308     3.601659
4801.31    11.179335     2.975657
4801.91    15.416019     2.938787
4802.52    17.306824     4.061627
4803.13    10.452415     7.417020
4803.73     2.296526     9.099562
4804.34     4.769679     6.003308
4804.95    14.037498     1.983988
4805.56    11.530768     3.125585
4806.16     5.221545     7.694459
4806.77    12.463777     5.036378
4807.38    18.962048     0.098455
4807.98    12.125947     1.258459
4808.59    10.043255     2.872982
4809.20     8.717543     5.372141
4809.81     5.666971     6.965425
4810.41     6.046535     6.491952
4811.02    10.155226     4.162895
4811.63    10.767648     1.918438
4812.23     7.012564     2.696581
4812.84    11.138807     4.954544
4813.45    13.793256     3.314021
4814.05     9.643915     2.301132
4814.66     7.361058     4.235230
4815.27    13.033732     2.983946
4815.88    16.898291     0.112852
4816.48    15.609632     1.841971
4817.09    15.511655     3.351360
4817.70    15.313660     2.994071
4818.30    11.468548     4.306660
4818.91    10.730004     6.010790
4819.52    15.915886     4.366948
4820.13    10.559889     4.707195
4820.73     4.518455     7.245008
4821.34     8.814741     7.716433
4821.95    12.942414     5.944962
4822.55     8.412458     6.028328
4823.16     9.820646     5.171204
4823.77    11.205180     5.558069
4824.38    11.665806     5.649300
4824.98    14.469277     3.604617
4825.59    15.973622     2.030214
4826.20    15.814619     1.656545
4826.80    10.166983     4.079935
4827.41     4.699245     4.826082
4828.02     6.585630     3.934502
4828.63    13.643959     3.903209
4829.23    15.492657     2.897182
4829.84     8.325324     5.426178
4830.45     9.541724     5.145074
4831.05    14.033563     3.846554
4831.66    14.247655     3.760420
4832.27    13.956023     1.988718
4832.88     7.434726     1.909860
4833.48    10.564867     2.377591
4834.09     9.731086     4.538047
4834.70     8.058546     6.110558
4835.30    13.155738     4.795181
4835.91     9.377966     3.979029
4836.52     7.627612     4.828417
4837.13     9.666879     4.615650
4837.73    11.741838     3.534860
4838.34    11.867936     2.857985
4838.95     9.892898     3.036118
4839.55     6.326162     4.746613
4840.16     6.852916     5.225148
4840.77     9.486260     4.546573
4841.38     9.537146     3.683308
4841.98     9.361959     2.891317
4842.59    12.927002     2.904270
4843.20    10.775481     5.228794
4843.80    10.110017     7.322032
4844.41    11.610652     8.555520
4845.02    12.008582     8.955460
4845.63     9.803159     7.942065
4846.23     5.538538     5.683813
4846.84    14.121050     1.273474
4847.45    19.258383    -0.131630
4848.05    17.729515     1.725802
4848.66    15.041877     3.151813
4849.27     8.936863     3.105783
4849.87    15.725012     1.609061
4850.48    13.673544     5.276424
4851.09    12.417920     6.102757
4851.70    17.518950     2.457470
4852.30    15.966218     3.048067
4852.91    16.781643     4.035646
4853.52    17.093861     2.862701
4854.12    17.095371     1.014576
4854.73    16.631519     1.711231
4855.34    16.097345     2.824507
4855.95    18.661625     0.093639
4856.55    21.127523     1.442146
4857.16    13.369729     1.763079
4857.77     9.105466     0.631065
4858.37    15.602337     1.381648
4858.98    18.996031     3.006360
4859.59    15.814101     2.874686
4860.20    13.117427     4.456460
4860.80    10.153237     4.483345
4861.41    13.937534     2.343366
4862.02    19.521091     0.854927
4862.62     7.820624     0.715623
4863.23    10.002855     4.769281
4863.84    11.679472     6.476186
4864.45     7.210886     5.848766
4865.05     7.923252     6.043934
4865.66    14.851124     6.008467
4866.27    16.023926     5.329285
4866.87    10.001524     3.741203
4867.48     5.552688     2.586119
4868.09     6.666957     3.550543
4868.70    10.264198     4.982721
4869.30    13.823461     3.238386
4869.91    13.073812     2.956830
4870.52    14.679802     2.607115
4871.12    15.250271     4.239549
4871.73    10.276360     7.034769
4872.34     6.301773     5.095326
4872.95     4.866727     5.312720
4873.55    16.803089     2.430087
4874.16    20.081333     1.727652
4874.77    12.522095     4.104922
4875.37    15.998920     2.999959
4875.98    12.477321     5.217707
4876.59     7.014724     7.939976
4877.20     6.580784     6.632065
4877.80    10.207659     3.055766
4878.41    11.919206     2.048385
4879.02     9.901101     3.739703
4879.62    13.555711     4.783667
4880.23    14.813806     5.464997
4880.84    11.933236     6.281506
4881.45     9.667714     5.725857
4882.05     8.856071     3.980786
4882.66    12.695397     5.796434
4883.27    15.395262     4.337186
4883.87    13.867619     3.185110
4884.48    13.564119     3.737670
4885.09    16.018641     1.995676
4885.69     9.618994     4.567110
4886.30     7.106247     4.106547
4886.91    19.115362     2.462609
4887.52    24.252575     3.559692
4888.12    12.812033     4.996514
4888.73    19.073055     3.368870
4889.34    17.140278     1.983909
4889.94    10.986286     2.673383
4890.55    10.284374     4.851709
4891.16     9.511024     7.274220
4891.77     4.943317     8.176700
4892.37    10.717854     5.010254
4892.98    13.773577     3.654682
4893.59    13.204473     3.941986
4894.19    16.961891     2.702103
4894.80    20.131023     1.936409
4895.41    13.595345     4.422210
4896.02    12.282748     4.850586
4896.62    14.857012     3.312687
4897.23    16.700655     3.193922
4897.84    19.000614     4.000411
4898.44    16.234268     2.352454
4899.05    17.820410     2.080675
4899.66    15.053322     4.537728
4900.27     9.131071     5.955410
4900.87    10.080073     5.008265
4901.48    11.524641     6.038044
4902.09    14.664126     4.108491
4902.69    13.250393     2.489873
4903.30    13.232952     3.489872
4903.91    18.134691     5.151275
4904.52    14.720625     5.331917
4905.12    10.793450     2.020904
4905.73     9.478795     5.253513
4906.34    10.840561     7.232107
4906.94    13.244044     2.714232
4907.55    14.749151     3.896546
4908.16    17.394587     3.298891
4908.77    13.009303     3.395149
4909.37    10.303600     4.093376
4909.98    13.105555     4.074456
4910.59    10.230175     5.813434
4911.19     7.771187     8.925112
4911.80    10.374486     6.513492
4912.41    12.036598     2.872489
4913.02    12.654114     3.343149
4913.62    17.886257     4.982967
4914.23    20.664568     4.407930
4914.84    21.281656     3.020753
4915.44    17.205790     3.770874
4916.05    14.264978     5.030071
4916.66    19.028273     3.993939
4917.27    20.336657     3.876506
4917.87    18.125038     4.326271
4918.48    16.203957     2.946389
4919.09    12.296046     2.304857
4919.69     8.051905     3.999728
4920.30    14.097414     2.838953
4920.91    14.229611     5.871330
4921.51    16.636343     5.950050
4922.12    19.726870     2.089843
4922.73    15.904193     2.134261
4923.34    18.179905     4.916001
4923.94    21.484240     2.954547
4924.55    17.737879     2.550481
4925.16    11.658550     4.183759
4925.76    12.278634     4.058777
4926.37    16.003294     5.776535
4926.98    13.069875     5.814692
4927.59    17.078148     3.451698
4928.19    17.787308     3.933989
4928.80    10.076413     5.803344
4929.41    17.646669     1.213332
4930.01    11.551625     4.308804
4930.62    11.591488     5.893906
4931.23    15.727717     5.495643
4931.84     8.150829     8.135720
4932.44     3.764188     7.276958
4933.05     9.359782     5.545924
4933.66    13.763068     4.351004
4934.26    14.189672     3.976739
4934.87    15.085037     3.967587
4935.48    15.838171     3.167221
4936.09    17.065166     2.062006
4936.69    15.559870     2.570569
4937.30    11.492593     2.729246
4937.91    10.223788     2.077255
4938.51    15.211823     3.842767
4939.12    19.145336     3.581420
4939.73    16.598618     2.215218
4940.34    13.671757     2.299903
4940.94    13.844043     4.262369
4941.55    11.870287     5.988625
4942.16    16.009077     5.034828
4942.76    18.891239     6.529425
4943.37    12.638671    10.080307
4943.98     6.029456     9.619769
4944.59    12.920128     5.171684
4945.19    16.088484     7.356806
4945.80    11.763432     6.029976
4946.41     6.712188     4.755128
4947.01     8.637804     9.218401
4947.62    17.195572     7.615153
4948.23    17.364101     3.892449
4948.84    15.137923     2.951660
4949.44    14.858604     4.663008
4950.05    15.125988     6.042259
4950.66    17.638002     5.332015
4951.26    18.455082     2.966062
4951.87    16.958221     1.220098
4952.48    15.957894     1.109696
4953.09    15.931415     2.080772
4953.69    14.744086     3.041811
4954.30    18.119873     2.084042
4954.91    17.474669     3.014734
4955.51    17.118696     3.599644
4956.12    23.106598     0.939920
4956.73    20.950645     1.545406
4957.33    17.130375     3.831735
4957.94    11.811654     6.209039
4958.55     9.316101     6.840548
4959.16    14.054721     4.975433
4959.76    17.750027     3.312471
4960.37    23.910450     2.250646
4960.98    22.352995     1.976237
4961.58    16.540590     1.936288
4962.19    17.053972     1.981507
4962.80    11.465487     3.614693
4963.41    15.057295     4.231020
4964.01    17.168163     3.803551
4964.62    12.529325     4.236139
4965.23    13.878450     5.916586
4965.83    14.611688     6.867898
4966.44    11.463541     7.130906
4967.05    10.375045     6.686514
4967.66    13.466898     4.433793
4968.26    14.174370     1.126102
4968.87    11.348018     1.725413
4969.48    12.720868     1.358222
4970.08    15.629365     1.699749
4970.69    17.478247     4.131899
4971.30    21.185610     4.642815
4971.91    14.986249     8.961966
4972.51    10.590969     8.689830
4973.12    13.181684     5.343937
4973.73    17.310993     4.939517
4974.33    19.511648     3.284027
4974.94    13.533098     2.642813
4975.55    11.126183     3.833053
4976.16    16.948059     5.315197
4976.76    18.890638     6.014248
4977.37     9.722953     6.839380
4977.98    14.738215     7.182057
4978.58    18.650864     6.604470
4979.19    13.125349     5.925770
4979.80    13.864003     5.995912
4980.41    18.564545     5.995187
4981.01    22.009909     6.066622
4981.62    18.122509     5.811156
4982.23    11.409047     6.258522
4982.83    11.850932     7.981795
4983.44    13.012665     6.209606
4984.05    16.912962     3.246766
4984.66    16.429047     3.912375
4985.26    12.051609     7.200876
4985.87    17.275936     7.168611
4986.48    17.929111     6.571030
4987.08    16.479219     8.331794
4987.69    15.491573     8.273994
4988.30    16.159962     4.965670
4988.91    23.338589     5.995491
4989.51    21.138947     3.754438
4990.12    22.827417     1.376700
4990.73    26.147175     2.328342
4991.33    14.523193     4.828133
4991.94     6.694672     9.244851
4992.55     7.039823     9.589923
4993.15    12.748002     9.524403
4993.76    15.785320    10.968069
4994.37    12.788061     8.431190
4994.98    19.245792     5.455876
4995.58    18.624281     5.263395
4996.19    15.243828     3.956152
4996.80    17.914291     0.984123
4997.40    13.879601     4.074028
4998.01    20.289261     7.596910
4998.62    24.071371     7.290109
4999.23    16.804466     5.966827
4999.83    11.011728     6.985064
5000.44    15.668618     6.507657
5001.05    22.630640     4.558980
5001.65    22.993717     4.370066
5002.26    16.940437     6.261062
5002.87    12.930241     6.249459
5003.48    16.690231     2.934660
5004.08    17.332586     2.133442
5004.69    14.147465     3.096205
5005.30    12.937432     3.047988
5005.90    13.222309     4.674626
5006.51    19.008644     5.644977
5007.12    20.173452     6.618101
5007.73    16.513456     6.744669
5008.33    16.969259     5.031802
5008.94    17.115915     5.097620
5009.55    16.819456     3.873392
5010.15    17.364008     3.065720
5010.76    16.600689     5.475836
5011.37    12.402977     8.772768
5011.98    12.616232     8.305532
5012.58    19.978382     4.841722
5013.19    21.661030     4.873416
5013.80    16.039425     7.985768
5014.40    24.352364     3.902414
5015.01    24.153582     3.283814
5015.62    13.951371     6.525171
5016.23    12.352776     6.427998
5016.83    23.559620     2.989244
5017.44    19.898006     7.077628
5018.05    14.916513    10.229208
5018.65    17.402248     7.560953
5019.26    21.164955     3.860455
5019.87    21.826094     4.531774
5020.48    23.267754     6.710332
5021.08    20.815054     6.290493
5021.69    16.449499     4.959461
5022.30    16.047604     5.964334
5022.90    14.934304     5.617480
5023.51    21.769148     3.218065
5024.12    25.657333     1.907865
5024.73    16.741055     4.472554
5025.33     9.476385     8.055735
5025.94    20.583475     4.249646
5026.55    30.341469     1.279154
5027.15    25.812693     4.009626
5027.76    16.153236     7.937669
5028.37    12.064621     9.390498
5028.97    12.998364     6.784879
5029.58    14.247026     4.578641
5030.19    13.962895     5.059774
5030.80    14.648679     5.712678
5031.40    17.542858     8.353552
5032.01    16.826567     8.255423
5032.62    16.941067     5.200007
5033.22    21.980320     3.016312
5033.83    20.126455     1.853411
5034.44    17.801592     3.477316
5035.05    23.832363     5.748989
5035.65    28.474739     5.878942
5036.26    17.413652     4.254502
5036.87    14.491349     3.084838
5037.47    17.827997     3.288480
5038.08    17.040594     4.272379
5038.69    13.982023     4.994656
5039.30    19.052059     5.083235
5039.90    17.991915     4.620471
5040.51    14.125345     3.432198
5041.12    16.589024     4.487052
5041.72    21.558357     8.938144
5042.33    21.416109     5.121801
5042.94    18.349205     3.039843
5043.55    18.753967     5.342219
5044.15    21.997553     5.016938
5044.76    18.482685     4.949360
5045.37    15.687555     5.003628
5045.97    19.075846     5.048678
5046.58    25.536844     4.954365
5047.19    26.917204     5.385761
5047.80    19.183641     9.865815
5048.40    19.060484     6.287026
5049.01    20.805317     1.294475
5049.62    10.411821     7.750402
5050.22    12.018546     6.318836
5050.83    20.425825     4.398806
5051.44    24.454247     5.252433
5052.05    20.610062     6.087559
5052.65    13.823759     7.281752
5053.26    13.869102     4.248439
5053.87    17.637514     3.808263
5054.47    17.457899     7.494704
5055.08    13.238329     8.088346
5055.69    14.059641     6.795062
5056.30    15.591784     4.774995
5056.90    18.439541     4.129697
5057.51    21.995743     6.007539
5058.12    16.881447     7.431949
5058.72    18.353304     4.064499
5059.33    23.596498     1.998131
5059.94    22.497019     4.207378
5060.54    16.768417     4.897378
5061.15    15.124171     6.052825
5061.76    17.368671     8.084243
5062.37    17.480080     7.243548
5062.97    15.794906     3.116518
5063.58    22.891310     4.273404
5064.19    24.635855     4.930985
5064.79    21.138016     3.685323
5065.40    18.831528     6.266070
5066.01    14.228144    13.556068
5066.62    16.568443     9.672438
5067.22    13.989969     5.804681
5067.83    10.940973     8.001934
5068.44    23.205059     5.328559
5069.04    19.066545     4.980748
5069.65    20.903973     4.039333
5070.26    26.283171     3.272548
5070.87    15.444978     5.902902
5071.47    12.746249     6.623543
5072.08    12.566565     8.560361
5072.69    14.395512     7.921109
5073.29    15.747037     5.046340
5073.90     7.826174     8.770665
5074.51    17.795731     5.561404
5075.12    25.259541     3.322521
5075.72    18.263824     6.102402
5076.33    18.462893     4.252527
5076.94    21.780977     4.348217
5077.54    20.162973     5.412826
5078.15    14.928182     4.608597
5078.76    13.825673     3.022281
5079.37    18.950502     3.805197
5079.97    23.074846     3.313628
5080.58    24.278788     1.514068
5081.19    22.898577     2.063616
5081.79    16.647459     6.021796
5082.40    12.937053     7.930742
5083.01    16.290512     5.562678
5083.62    22.477507     2.958268
5084.22    22.765923     5.290562
5084.83    17.190119     8.439014
5085.44    15.090130     8.471554
5086.04    21.935081     5.252384
5086.65    29.933018     2.904725
5087.26    23.687523     6.010298
5087.87    17.839277     6.174404
5088.47    18.116295     3.628381
5089.08    18.006296     4.911589
5089.69    17.548290     8.156239
5090.29    15.337860     9.453922
5090.90    16.142046     6.354370
5091.51    21.181555     1.894483
5092.12    22.896362     2.425976
5092.72    23.234257     4.402396
5093.33    22.432182     5.045088
5093.94    22.195507     3.739680
5094.54    23.549181     1.958004
5095.15    16.741474     3.882865
5095.76    11.861105     5.104785
5096.36    16.381672     5.304996
5096.97    22.011824     7.831077
5097.58    17.108624     7.276502
5098.19    15.493303     3.905872
5098.79    16.403345     1.885091
5099.40    12.966818     3.841440
5100.01    18.131611     7.173612
5100.61    20.265978     8.319864
5101.22    18.890108     5.792055
5101.83    18.975615     2.997377
5102.44    16.791859     5.736605
5103.04    20.210812     9.499146
5103.65    20.783663    11.617558
5104.26    15.867912    10.754411
5104.86    19.944908     6.058217
5105.47    28.824831     2.989460
5106.08    26.757311     3.817030
5106.69    20.078884     4.878352
5107.29    28.458031     2.351822
5107.90    32.318947     2.034020
5108.51    25.323210     4.334910
5109.11    18.628048     6.153215
5109.72    23.864376     6.004601
5110.33    32.608006     6.567356
5110.94    28.014238     7.466572
5111.54    17.270067     8.175170
5112.15    16.840366     7.240717
5112.76    19.695786     2.144291
5113.36    23.288313     1.891244
5113.97    27.068195     4.264779
5114.58    23.222990     4.948757
5115.19     4.522844     9.693313
5115.79     9.746799     6.379224
5116.40    25.448875     1.240088
5117.01    23.799696     4.148507
5117.61    17.685785     8.336316
5118.22    18.353596     9.037575
5118.83    17.328379     7.212044
5119.44    11.831504     5.976231
5120.04    14.056401     6.133379
5120.65    16.774897     4.740050
5121.26    16.644314     4.113245
5121.86    14.724833     5.046925
5122.47    13.614357     4.927069
5123.08    17.492353     6.079443
5123.69    18.297207     7.633305
5124.29    16.005611     7.949082
5124.90    18.614853     7.138173
5125.51    19.824413     6.436995
5126.11    23.701376     5.279472
5126.72    23.736195     3.740463
5127.33    14.385857     3.742022
5127.94    18.710035     6.931520
5128.54    19.452398     7.808478
5129.15    19.787899     5.451809
5129.76    31.554039     4.025497
5130.36    26.824556     4.903782
5130.97    20.999825     7.947042
5131.58    24.331915     8.478835
5132.18    26.309397     4.242763
5132.79    16.402466     2.547774
5133.40    12.445065     4.580234
5134.01    19.499439     5.957770
5134.61    25.019587     4.988719
5135.22    20.149925     6.643835
5135.83    21.008667     6.198114
5136.43    21.789967     4.952030
5137.04    15.039665     5.989545
5137.65    17.377705     6.074030
5138.26    20.955444     6.030119
5138.86    24.662724     5.858051
5139.47    24.927944     6.011752
5140.08    11.434316     7.886765
5140.68    12.539274     6.598773
5141.29    22.717539     4.771668
5141.90    23.940622     6.050492
5142.51    20.673349     7.674505
5143.11    20.259541     8.298747
5143.72    23.292875     7.598693
5144.33    24.955994     7.023664
5144.93    22.316568     8.075054
5145.54    23.197386     6.376254
5146.15    20.769997     4.922363
5146.76    14.952579     6.044715
5147.36    20.531521     6.049072
5147.97    28.259962     6.098083
5148.58    26.894073     5.652160
5149.18    19.726768     5.020106
5149.79    20.773718     5.939534
5150.40    25.192455     5.284757
5151.01    22.513731     5.549396
5151.61    19.393875     6.993704
5152.22    28.881226     5.374385
5152.83    19.115776     5.096344
5153.43    13.328424     6.780506
5154.04    25.753059     8.026599
5154.65    27.175648     8.395453
5155.26    21.732796    12.174480
5155.86    20.692612    11.186226
5156.47    22.917912     4.657897
5157.08    19.340191     4.463592
5157.68    21.333332     6.438350
5158.29    22.129280     6.975645
5158.90    15.363359     7.092709
5159.51    10.502892     8.288988
5160.11    17.095005     5.061585
5160.72    23.111538     2.936584
5161.33    23.171219     5.157034
5161.93    27.424957     6.514605
5162.54    26.443155     9.058963
5163.15    22.970013     9.596717
5163.76    24.304863     6.803794
5164.36    28.339991     5.648905
5164.97    22.416817     8.146242
5165.58    17.690382     8.136889
5166.18    22.317621     4.916361
5166.79    26.563665     5.798712
5167.40    32.251427     5.278298
5168.00    28.240162     5.776131
5168.61    17.833117     8.011344
5169.22    23.449257     5.831488
5169.83    29.438543     3.855994
5170.43    24.995497     4.567278
5171.04    16.861038     7.108963
5171.65    19.165298     9.122746
5172.25    24.889011     7.195119
5172.86    27.232334     6.446664
5173.47    23.866989     9.025234
5174.08    17.494173     8.317842
5174.68    20.591980     8.257845
5175.29    30.079960     9.251049
5175.90    31.990082     8.998358
5176.50    21.087013     7.481577
5177.11    21.623999     6.434715
5177.72    23.843435     5.714415
5178.33    18.927414     5.002275
5178.93    30.548439     5.592281
5179.54    32.960003     6.670579
5180.15    26.992670     6.930841
5180.75    25.231426     6.947097
5181.36    16.773851     9.133908
5181.97    13.210887    10.507572
5182.58    17.366486     7.737741
5183.18    21.782091     3.124812
5183.79    22.805283     4.666471
5184.40    19.946783     7.030576
5185.00    18.077581     8.513944
5185.61    21.490793    10.088179
5186.22    25.412468     7.501526
5186.83    21.725288     8.573488
5187.43    18.408979    10.849640
5188.04    23.789284     7.353256
5188.65    20.385147     6.941520
5189.25    21.228708     6.028847
5189.86    26.044033     5.313565
5190.47    21.622061     8.737103
5191.08    21.245838     7.488769
5191.68    21.589066     5.525888
5192.29    18.545639     6.076978
5192.90    16.716352     6.101666
5193.50    20.115709     5.824175
5194.11    21.991199     9.174390
5194.72    19.844753    13.040362
5195.33    19.191654     9.930861
5195.93    18.349148     7.703545
5196.54    23.122610     6.111282
5197.15    31.198536     5.079857
5197.75    29.999289     9.382260
5198.36    27.568329    13.814447
5198.97    24.416105    12.795769
5199.58    17.964293     8.995194
5200.18    13.663288    10.733068
5200.79    22.708368     9.017331
5201.40    32.354691     5.283895
5202.00    29.227907     4.997427
5202.61    24.278425     4.838132
5203.22    17.799612     5.839169
5203.82    13.648389     7.209838
5204.43    14.909168     7.064854
5205.04    16.244558     6.274773
5205.65    29.179493     5.872538
5206.25    37.027359     6.066941
5206.86    21.006836     6.798196
5207.47    16.736597     8.208175
5208.07    23.967422     6.552079
5208.68    25.112276     3.903235
5209.29    15.682466     5.562298
5209.90    20.302063     6.871139
5210.50    28.203098     7.066771
5211.11    25.401896     8.199762
5211.72    17.514660    10.205582
5212.32    14.653740     7.130702
5212.93    15.068121     5.106177
5213.54    17.153185     8.078201
5214.15    24.827921     8.740924
5214.75    28.503883     5.376942
5215.36    21.497168     4.665000
5215.97    11.139274     7.979306
5216.57    14.628252     5.293402
5217.18    22.245852     3.662425
5217.79    21.677544     5.556530
5218.40    17.518888     6.977812
5219.00    29.764193     6.329811
5219.61    31.793642     6.216645
5220.22    21.773081     8.656203
5220.82    20.248047    10.508182
5221.43    17.147755     4.191308
5222.04    19.830147     3.667309
5222.65    27.554165     9.188782
5223.25    27.619629     6.492940
5223.86    24.603149     7.370097
5224.47    17.309263     9.037919
5225.07    12.111968     6.902701
5225.68    20.812544     5.813750
5226.29    22.513453     7.277134
5226.90    19.926437     9.746181
5227.50    21.979479    10.993899
5228.11    20.149988    10.022779
5228.72    17.977129     6.907669
5229.32    18.247997     4.876823
5229.93    17.512386     6.665951
5230.54    11.155805     9.553054
5231.15    16.117352     9.201646
5231.75    25.352530     6.691642
5232.36    18.675484     6.671864
5232.97    13.377850     9.037833
5233.57    18.905691     9.921738
5234.18    27.328629     7.753160
5234.79    25.286352     5.290803
5235.40    21.795158     5.191542
5236.00    23.171610     4.155399
5236.61    27.004637     2.000397
5237.22    27.051939     4.720495
5237.82    27.721369     7.350339
5238.43    25.544050     8.202800
5239.04    20.055162     8.942026
5239.64    23.560743     9.609375
5240.25    20.124722    10.529257
5240.86    13.993040     9.436301
5241.47    19.435188     5.445560
5242.07    18.091698     5.054281
5242.68    18.813480     6.668116
5243.29    26.689064     6.940150
5243.89    30.798225     5.500912
5244.50    29.494404     3.908669
5245.11    20.949032     4.715912
5245.72    15.008274     5.997546
5246.32    27.902891     2.686546
5246.93    32.293770     3.246793
5247.54    25.113802     6.648717
5248.14    21.131683     7.052400
5248.75    21.074785     6.341008
5249.36    20.107052     5.729609
5249.97    20.611101     6.213163
5250.57    24.366959     7.803644
5251.18    17.457504     8.067886
5251.79    15.219333     8.189153
5252.39    23.478153     7.878456
5253.00    25.628172     5.377193
5253.61    22.482878     5.839833
5254.22    21.309090     9.200835
5254.82    23.019669    11.024385
5255.43    20.006268     8.590084
5256.04    19.252884     8.940329
5256.64    18.006424    11.247313
5257.25    14.466759     9.549170
5257.86    24.840389     5.090229
5258.47    30.423063     4.790694
5259.07    25.575283     7.003562
5259.68    25.032513     5.137613
5260.29    23.325867     6.695762
5260.89    17.186190     7.656484
5261.50    14.050045     4.976890
5262.11    23.034321     5.130366
5262.72    22.859062     8.031863
5263.32    21.113516     8.489642
5263.93    27.986340     5.172398
5264.54    20.864220     5.903515
5265.14    20.133297     7.733079
5265.75    24.628410     7.989239
5266.36    16.148956     7.943356
5266.97    17.432817     8.322150
5267.57    24.333719     7.180016
5268.18    25.970175     4.951936
5268.79    23.809031     4.914633
5269.39    21.851028     4.696117
5270.00    18.690182     3.715751
5270.61    16.667803     3.029850
5271.22    24.667547     3.222716
5271.82    21.491592     5.649448
5272.43    11.211848     8.229127
5273.04    14.087643     8.099575
5273.64    16.277546     8.165966
5274.25    15.815739     9.986365
5274.86    14.913111    10.928366
5275.46    12.579929     7.287880
5276.07    11.909715     4.574658
5276.68    15.664583     5.746833
5277.29    20.020859     8.834010
5277.89    16.085264     9.475225
5278.50    17.062218     8.167808
5279.11    20.956038     6.848629
5279.71    15.432053     6.823361
5280.32     9.893255     8.120225
5280.93     7.021915     9.462320
5281.54     7.100943    10.011128
5282.14    11.835474     9.631087
5282.75    18.062672     6.920815
5283.36    19.554480     4.749715
5283.96    16.943842     5.019671
5284.57    21.352102     4.084314
5285.18    25.363073     4.850760
5285.79    24.807163     5.877837
5286.39    23.361874     3.441278
5287.00    21.754873     2.981333
5287.61    20.718639     4.814819
5288.21    21.019049     5.998127
5288.82    23.358883     4.672844
5289.43    28.593134     3.276049
5290.04    28.881767     4.803268
5290.64    21.547928     7.926797
5291.25    21.515049     6.339457
5291.86    23.549829     7.639988
5292.46    22.905203    11.050510
5293.07    21.707891     8.521083
5293.68    18.468367     8.523644
5294.29    21.627356     8.310604
5294.89    30.874374     5.050740
5295.50    29.423601     5.132114
5296.11    20.062672     7.424299
5296.71    18.217207     7.636683
5297.32    27.570728     5.108573
5297.93    22.025124     6.466663
5298.54    18.984604     5.913326
5299.14    26.307259     2.963972
5299.75    26.386547     5.174289
5300.36    26.520205     6.600964
5300.96    26.537540     7.567636
5301.57    23.260017     9.074827
5302.18    21.805729     6.111183
5302.79    26.042538     5.427384
5303.39    30.034258     7.002679
5304.00    25.560352     5.887986
5304.61    19.795874     8.318439
5305.21    20.245512     9.933530
5305.82    25.990202     8.997734
5306.43    27.888525    11.757092
5307.04    24.182049     9.712541
5307.64    22.413141     5.568191
5308.25    28.744907     6.710632
5308.86    34.700237     8.028983
5309.46    27.349632    10.393064
5310.07    14.582748    11.903198
5310.68    17.669876     8.104794
5311.28    23.610653     6.345793
5311.89    24.966560     7.269621
5312.50    24.836554     7.119327
5313.11    28.531174     4.970218
5313.71    29.899864     3.587444
5314.32    25.006937     5.512236
5314.93    18.485014     9.539651
5315.53    20.273087     9.174356
5316.14    21.040493     8.012299
5316.75    15.104794     8.998264
5317.36    13.942383     7.727096
5317.96    17.354832     6.403131
5318.57    21.818571     5.877991
5319.18    23.428276     5.766410
5319.78    18.511366     7.955210
5320.39    13.597415     8.916642
5321.00    17.340235     6.918315
5321.61    29.528084     5.157658
5322.21    30.499197     5.449218
5322.82    23.698748     5.929089
5323.43    21.323063     5.783634
5324.03    18.286469     9.078754
5324.64    19.719086    11.841269
5325.25    24.174368    10.778918
5325.86    23.346296     8.149282
5326.46    23.709095     9.379827
5327.07    27.255781     9.071738
5327.68    29.185875     4.237056
5328.28    24.059593     4.383915
5328.89    22.106308     4.740147
5329.50    22.670296     5.443402
5330.11    17.724997    10.892941
5330.71    18.514881    12.606400
5331.32    23.719385     9.786274
5331.93    26.022728     7.044597
5332.53    24.081188     7.915516
5333.14    25.994324    10.285740
5333.75    28.996317     9.379270
5334.36    26.323259     4.525436
5334.96    27.022900     5.215938
5335.57    25.179621     7.322302
5336.18    17.066528     6.995510
5336.78    12.386342     8.937178
5337.39    17.043777    11.140730
5338.00    26.913618    10.538491
5338.61    33.430946     6.756418
5339.21    34.280209     3.608386
5339.82    34.322220     3.240155
5340.43    32.880299     5.041547
5341.03    24.715916     6.242599
5341.64    24.680243     4.680665
5342.25    31.243755     4.509862
5342.86    32.465588     8.528774
5343.46    28.081875     9.126647
5344.07    28.479240     7.103624
5344.68    30.837643     8.211138
5345.28    22.605291    14.344292
5345.89    23.652222    11.758343
5346.50    27.857386     4.854655
5347.10    22.536760     3.976480
5347.71    23.340996     3.532880
5348.32    30.739969     2.680223
5348.93    33.767056     4.244132
5349.53    25.161499     9.589101
5350.14    23.707418    11.751186
5350.75    31.140991     8.903381
5351.35    36.013340     5.191236
5351.96    31.843948     5.925172
5352.57    25.274527     7.417083
5353.18    24.202778     8.120055
5353.78    29.024872    10.012975
5354.39    29.441456     8.185699
5355.00    29.994980     5.757095
5355.60    37.119415     6.090614
5356.21    41.344398     4.429721
5356.82    33.263870     7.791966
5357.43    22.752678    13.060474
5358.03    26.850758     8.782013
5358.64    26.211126     5.172963
5359.25    24.769377     6.939952
5359.85    32.167309     9.962063
5360.46    35.404839     7.913249
5361.07    28.217224     7.789001
5361.68    20.984898     9.992988
5362.28    26.754606     7.136065
5362.89    26.095379     4.593099
5363.50    26.952568     3.820146
5364.10    37.433193     3.849501
5364.71    34.257740     5.950485
5365.32    27.969822     7.299869
5365.93    29.293699     5.792884
5366.53    33.484787     3.135178
5367.14    32.586758     4.513490
5367.75    29.477325     5.764982
5368.35    28.331615     3.182677
5368.96    23.939838     3.850376
5369.57    18.931484     5.668219
5370.18    16.992279     7.150530
5370.78    19.645672     9.712095
5371.39    28.219135     8.939803
5372.00    31.202816     6.587766
5372.60    23.642553     5.350497
5373.21    24.086817     2.430702
5373.82    23.468176     6.083283
5374.43    18.948593    11.988005
5375.03    21.839195     5.926236
5375.64    22.917877     4.521746
5376.25    18.712313     8.796721
5376.85    14.925472     9.277668
5377.46    19.095158     6.900822
5378.07    25.215214     6.181113
5378.68    29.114138     6.984017
5379.28    32.178215     5.617171
5379.89    25.010508     8.847606
5380.50    17.662018    11.929403
5381.10    22.828403     7.828892
5381.71    26.774065     5.374454
5382.32    29.183407     7.100051
5382.92    31.000513     9.000373
5383.53    28.804745     6.206274
5384.14    31.917942     4.487296
5384.75    33.048336     5.089970
5385.35    23.959843     5.057452
5385.96    26.434393     4.707948
5386.57    34.240543     3.257238
5387.17    34.157925     1.980011
5387.78    27.249321     4.145132
5388.39    24.839083     5.027529
5389.00    27.234041     5.274067
5389.60    27.672348     7.852626
5390.21    30.053934     6.318238
5390.82    30.387886     5.385448
5391.42    27.967108     7.092526
5392.03    31.404078     3.383780
5392.64    32.784176     5.982650
5393.25    29.672310    12.180032
5393.85    28.562134     8.424774
5394.46    31.360874     5.591471
5395.07    34.679981     4.382208
5395.67    32.788227     2.838175
5396.28    23.385368     6.854087
5396.89    20.466457     9.331842
5397.50    27.509489     6.782908
5398.10    34.433743     4.682998
5398.71    42.305496     7.418040
5399.32    44.203102    10.091475
5399.92    35.535885     7.533630
5400.53    29.079994     5.167796
5401.14    33.369789     5.494566
5401.75    39.991535     7.011769
5402.35    32.365265     6.926720
5402.96    27.113264     7.783326
5403.57    23.524490     9.130666
5404.17    14.571432     9.026404
5404.78    19.219675     9.168404
5405.39    30.997347     8.533148
5406.00    36.927616     7.031331
5406.60    35.654205     6.697137
5407.21    32.261086     4.164101
5407.82    32.393791     3.431798
5408.42    35.487835     9.653028
5409.03    28.967024    11.514440
5409.64    18.092651     9.380929
5410.25    15.533832     7.312909
5410.85    24.291473     3.696496
5411.46    28.034117     4.082870
5412.07    24.965857     7.064947
5412.67    27.973454     5.982248
5413.28    29.050543     7.961765
5413.89    27.912657     9.854536
5414.50    28.809193     7.220554
5415.10    29.851585     7.846961
5415.71    32.373604     6.725067
5416.32    33.988190     2.991064
5416.92    30.258118     4.709867
5417.53    33.080494     7.117001
5418.14    38.215271     6.737779
5418.74    35.459560     5.082549
5419.35    35.778378     6.176135
5419.96    32.534569     8.899353
5420.57    25.082005    10.035448
5421.17    30.473356     8.199090
5421.78    35.011684     6.096855
5422.39    31.505192     6.130772
5422.99    27.055309     8.303186
5423.60    24.775089     9.975475
5424.21    27.281464     9.723846
5424.82    30.448654     8.183504
5425.42    22.426945     7.595478
5426.03    20.371782     8.628551
5426.64    27.056746     8.960243
5427.24    23.291021     6.294721
5427.85    19.432629     7.600156
5428.46    20.314600    10.008539
5429.07    21.828403     8.111127
5429.67    22.468048     9.577393
5430.28    28.013750     8.702373
5430.89    34.999069     4.942345
5431.49    28.202808    10.497799
5432.10    22.161646    12.781663
5432.71    23.134344     9.907755
5433.32    24.706184    11.574428
5433.92    30.394520    11.305653
5434.53    30.479652     9.881972
5435.14    22.307808    10.117228
5435.74    27.845825     8.117034
5436.35    37.065342     6.882199
5436.96    37.958965     6.982951
5437.57    32.824348     5.066648
5438.17    26.074179     6.653243
5438.78    24.434984     9.004385
5439.39    29.950867     6.568943
5439.99    31.124640     5.595433
5440.60    25.638067     6.104694
5441.21    21.772879     6.009775
5441.82    29.975500     6.274425
5442.42    34.712456     8.197345
5443.03    33.048790     8.835369
5443.64    35.425819     5.339774
5444.24    30.512590     7.164826
5444.85    27.919563    10.016229
5445.46    36.283188     7.332975
5446.07    33.809418     7.480828
5446.67    29.322918     7.536162
5447.28    31.936546     5.995834
5447.89    33.454376     8.059617
5448.49    31.486544     9.104080
5449.10    28.785542     7.829909
5449.71    28.269194     7.095829
5450.32    26.192160     6.888623
5450.92    21.362591     7.115797
5451.53    17.872105     7.117240
5452.14    22.609135     5.802706
5452.74    27.429770     7.325594
5453.35    29.084465     8.928821
5453.96    33.036194     3.442685
5454.56    33.640041     2.981222
5455.17    31.839046     6.218339
5455.78    32.617397     5.107846
5456.39    33.714714     6.543736
5456.99    29.758236    10.191785
5457.60    23.179726    12.841167
5458.21    26.232098    14.065053
5458.81    33.281471    13.585402
5459.42    34.764107    15.379875
5460.03    30.202393    21.711098
5460.64    38.339668    17.561537
5461.24    44.080311    11.999833
5461.85    31.654354    17.299612
5462.46    30.882305    16.687479
5463.06    29.464722    15.396238
5463.67    18.345772    18.885637
5464.28    17.756048    19.004255
5464.89    25.660725    16.655943
5465.49    31.083889    13.651214
5466.10    30.221540    10.124331
5466.71    41.765194     6.908691
5467.31    51.253056     6.216317
5467.92    42.566639     8.582724
5468.53    36.797340    10.602613
5469.14    30.621859    13.358788
5469.74    24.006329    15.030291
5470.35    29.786156    10.410677
5470.96    34.522476     6.245467
5471.56    35.309521     6.152322
5472.17    38.246635     7.739796
5472.78    33.952385     7.617298
5473.39    29.926304     5.148608
5473.99    32.861691     3.689179
5474.60    30.829494     8.445412
5475.21    31.409340    11.177646
5475.81    33.996700    10.000898
5476.42    26.473484    12.740246
5477.03    28.319365    10.814795
5477.64    32.382076     8.264939
5478.24    21.652187    13.348138
5478.85    23.820024    11.527887
5479.46    34.537411     7.618974
5480.06    35.766266     9.702913
5480.67    26.726715    10.484261
5481.28    23.500813     9.511100
5481.89    31.105532     7.974680
5482.49    37.122612     6.117646
5483.10    37.545696     6.967695
5483.71    35.915031     9.241717
5484.31    36.230049     9.841843
5484.92    33.688156    10.770334
5485.53    28.267427    10.660869
5486.14    24.149530     9.065362
5486.74    25.648655     9.711699
5487.35    29.865631     9.449674
5487.96    31.997084     6.960734
5488.56    30.692287     5.703248
5489.17    33.408276     7.279726
5489.78    34.300964     9.078639
5490.38    26.773258     8.226027
5490.99    30.028826     8.033481
5491.60    39.260426     7.685977
5492.21    42.082355     6.876460
5492.81    39.778423     9.454617
5493.42    37.024269    11.347452
5494.03    34.961357     9.972188
5494.63    31.269173     7.785645
5495.24    29.247139     6.226094
5495.85    30.313568     6.093247
5496.46    32.079494     7.480687
5497.06    30.104897     9.177883
5497.67    27.680664     8.275881
5498.28    29.461208     5.920232
5498.88    33.644154     9.183356
5499.49    32.203568    10.755227
5500.10    30.011106     7.995984
5500.71    39.600040     8.264135
5501.31    35.703453     9.827521
5501.92    27.174307     9.846452
5502.53    36.202660     8.214522
5503.13    30.219053     8.377728
5503.74    29.178089     7.119895
5504.35    47.929062     3.932593
5504.96    39.739063     7.941610
5505.56    27.463427    11.710218
5506.17    31.896093    10.037574
5506.78    36.454941     8.295705
5507.38    36.228981     8.097297
5507.99    31.167437     9.165666
5508.60    24.708654    10.132026
5509.21    26.081264     8.597070
5509.81    32.565414     5.023971
5510.42    34.645679     2.834448
5511.03    27.790085     5.978907
5511.63    26.240381     8.092334
5512.24    32.871544     6.071713
5512.85    31.220276     5.625700
5513.46    30.590315     6.547843
5514.06    29.355953     8.203925
5514.67    19.757790    10.501698
5515.28    24.881990    11.092010
5515.88    31.667805     9.501187
5516.49    23.598766     6.671218
5517.10    28.388344     3.618876
5517.71    32.364536     3.550632
5518.31    28.671909     6.775291
5518.92    41.900021     8.499828
5519.53    51.034470     6.569079
5520.13    44.400730     3.954693
5520.74    34.495430     5.253455
5521.35    30.492634     6.649342
5521.95    31.100557     7.120628
5522.56    31.013607     7.323503
5523.17    31.045689     4.988174
5523.78    28.841080     4.463376
5524.38    29.017723     6.940804
5524.99    43.835503     5.172481
5525.60    49.356510     4.159863
5526.20    39.860256     6.023757
5526.81    37.617203     6.140925
5527.42    38.232960     6.142084
5528.03    42.159588     7.208146
5528.63    50.061081     8.672459
5529.24    42.901089     9.384013
5529.85    36.142651     8.628459
5530.45    40.566135     7.827938
5531.06    28.142401    10.451035
5531.67    21.558899    12.135841
5532.28    33.650482    10.081439
5532.88    40.978588     7.209261
5533.49    38.771152     4.851387
5534.10    33.696095     4.019732
5534.70    33.101738     5.301679
5535.31    31.754440     7.455609
5535.92    29.744883     9.374090
5536.53    31.112673    10.110503
5537.13    36.427567     8.675633
5537.74    36.888050     6.066248
5538.35    30.422581     4.917456
5538.95    28.893227     7.541282
5539.56    34.325302     9.543558
5540.17    40.100674    10.061661
5540.78    38.412655    11.923387
5541.38    35.571167    10.549454
5541.99    35.022644     7.755600
5542.60    35.721844     7.934220
5543.20    36.724453     7.351240
5543.81    36.889019     5.370742
5544.42    35.361492     4.001172
5545.03    32.172588     5.069061
5545.63    28.540817     6.362548
5546.24    27.952522     6.981336
5546.85    31.883610     8.876128
5547.45    25.547966    11.256627
5548.06    20.718296    11.903349
5548.67    34.645996    10.637244
5549.28    26.785583    13.738935
5549.88    13.425146    15.631696
5550.49    26.235203    10.189354
5551.10    41.412037     6.280242
5551.70    44.186546     6.423745
5552.31    37.441269     7.955605
5552.92    36.151638     7.119279
5553.53    40.402611     4.982275
5554.13    45.132790     4.011740
5554.74    46.064735     5.369864
5555.35    42.166897     6.452553
5555.95    40.347698     5.774549
5556.56    44.766266     4.729641
5557.17    40.824318     7.461634
5557.77    29.918453    12.273950
5558.38    27.305351    14.239152
5558.99    45.840767    10.636554
5559.60    47.366249     9.541237
5560.20    26.391966    12.934832
5560.81    28.602097    12.486480
5561.42    28.138824    12.345895
5562.02    22.229145    12.915088
5562.63    33.486813    10.572874
5563.24    37.390930    10.267654
5563.85    32.128563    10.906837
5564.45    30.303322     9.309094
5565.06    28.700489     9.127304
5565.67    30.241703    12.522884
5566.27    37.109146    16.048294
5566.88    43.483978    12.034763
5567.49    41.926991     7.868700
5568.10    32.962154     9.011314
5568.70    27.573280    12.116768
5569.31    38.535175    13.177039
5569.92    48.818657    13.097214
5570.52    37.379726    14.208864
5571.13    38.370239    11.971926
5571.74    43.545361    10.086667
5572.35    33.783676    17.006163
5572.95    29.609613    38.968727
5573.56    29.811058    82.354164
5574.17    28.946384    143.685852
5574.77    28.761662    206.783997
5575.38    11.659039    264.481445
5575.99    -11.371955    308.122772
5576.60    -6.487198    328.311981
5577.20     9.465406    330.463654
5577.81    28.333136    314.015320
5578.42    44.936790    277.922424
5579.02    28.001537    238.725739
5579.63    17.077925    215.125153
5580.24    42.553368    202.470505
5580.85    47.705051    164.405670
5581.45    39.553127    133.675034
5582.06    38.853813    127.532181
5582.67    43.310837    108.525208
5583.27    51.117519    75.519836
5583.88    51.469025    43.543930
5584.49    34.332188    26.754469
5585.10    23.448143    22.381554
5585.70    28.824886    20.245190
5586.31    38.295033    14.649799
5586.92    28.810753    15.697049
5587.52    21.747713    17.917934
5588.13    30.860012    15.235009
5588.74    21.267738    15.536652
5589.35    13.946548    13.016179
5589.95    24.489342     8.026875
5590.56    32.604954    11.845411
5591.17    30.717266    14.075146
5591.77    25.921474    10.759301
5592.38    28.402792     8.868633
5592.99    27.592632    10.119193
5593.59    27.954390    10.776779
5594.20    35.510647     7.747047
5594.81    31.343254     6.013226
5595.42    27.637480     6.057835
5596.02    35.252235     6.765231
5596.63    35.034790     8.926093
5597.24    30.369291    10.207167
5597.84    30.832312     9.070037
5598.45    37.607170     6.825041
5599.06    36.800541     5.720366
5599.67    30.847408     8.405833
5600.27    33.673542    14.249662
5600.88    35.097515    12.905541
5601.49    30.962334     8.713344
5602.09    26.295361    10.475448
5602.70    28.177595    11.061077
5603.31    33.407013     9.510930
5603.92    34.501160     8.155627
5604.52    28.295506     7.297420
5605.13    24.668631     6.917458
5605.74    28.803490     8.844824
5606.34    33.965855    14.637316
5606.95    34.467274    14.744803
5607.56    33.053623     9.727982
5608.17    36.805843     9.210188
5608.77    42.658955    11.668747
5609.38    44.855442    11.454120
5609.99    40.033035     7.316652
5610.59    31.913773     9.166571
5611.20    29.464153    10.434896
5611.81    33.750916     6.957053
5612.42    31.581566    11.739313
5613.02    28.291706    17.532797
5613.63    28.962515    16.181202
5614.24    29.810484    10.368845
5614.84    33.279930     6.953816
5615.45    35.932507     8.166800
5616.06    30.817659    10.604916
5616.67    24.310032    10.418071
5617.27    27.941168     7.354149
5617.88    42.651390     4.302114
5618.49    43.820957     4.685889
5619.09    38.091084     6.281802
5619.70    39.507095     6.117588
5620.31    41.519245     5.543218
5620.92    37.325748     6.877799
5621.52    31.059460     8.979802
5622.13    35.449211     7.695618
5622.74    41.044785     7.168690
5623.34    39.751640     7.989237
5623.95    34.482697     6.591955
5624.56    36.560600     5.763549
5625.17    38.327507     7.450554
5625.77    30.569796    10.503103
5626.38    35.379177    10.880713
5626.99    42.393837     9.817854
5627.59    36.371147     9.918842
5628.20    30.672920    10.258649
5628.81    28.471292     9.521621
5629.41    32.247833     7.211393
5630.02    45.722977     4.458981
5630.63    45.857288     4.665884
5631.24    36.997387     7.054399
5631.84    44.853390     7.664656
5632.45    39.288551     9.159506
5633.06    22.349909    11.161571
5633.66    20.748371    10.688952
5634.27    30.021738     7.840000
5634.88    33.095482     5.828014
5635.49    26.035597     6.101972
5636.09    33.816120     4.597527
5636.70    41.867535     4.519426
5637.31    34.201538     7.713721
5637.91    22.674892     9.590023
5638.52    24.131409    10.250456
5639.13    33.016598     9.991160
5639.74    28.758526     8.341516
5640.34    32.338852     8.534022
5640.95    40.021488    11.388144
5641.56    32.881470    14.041761
5642.16    32.511410    11.900829
5642.77    37.491451     7.051144
5643.38    35.096569     4.845273
5643.99    30.478167     7.119337
5644.59    27.189247     9.235641
5645.20    26.772058     8.909820
5645.81    30.793362    10.715618
5646.41    41.260426     9.853181
5647.02    50.930058     6.048861
5647.63    46.217136     6.400301
5648.24    35.326515     7.005339
5648.84    29.999138     7.105992
5649.45    33.910259     9.849010
5650.06    34.025578    12.409567
5650.66    32.157440    12.930519
5651.27    36.026848    11.549075
5651.88    37.810352     9.394451
5652.49    36.541271     7.573858
5653.09    33.084251     6.947772
5653.70    24.900408     7.922349
5654.31    22.852667     9.686273
5654.91    29.640842    10.092522
5655.52    32.591633     7.254807
5656.13    33.720547     5.823925
5656.74    37.206898     7.047908
5657.34    42.689781     8.118483
5657.95    43.742043    11.052140
5658.56    39.145710    12.915394
5659.16    32.753887    10.427745
5659.77    28.082581    10.883720
5660.38    27.192810    11.770070
5660.99    30.127562     9.287663
5661.59    34.072998     9.534440
5662.20    32.309341     9.543424
5662.81    27.040424     7.149887
5663.41    31.928905     7.475378
5664.02    37.641117    10.612721
5664.63    36.009525    12.999634
5665.23    31.628805    11.128415
5665.84    35.842476     9.392764
5666.45    39.552063    10.152401
5667.06    28.514999    11.328969
5667.66    29.062620     8.778338
5668.27    50.579605     4.209050
5668.88    71.757942     3.161046
5669.48    50.406960     8.825710
5670.09    29.854143    11.694529
5670.70    42.863808     7.369142
5671.31    38.105682     8.240089
5671.91    32.071278    10.398671
5672.52    38.814857    10.890927
5673.13    36.733940    14.386434
5673.73    32.356243    13.492816
5674.34    30.922003    11.103153
5674.95    28.824440    16.725042
5675.56    27.306023    15.969287
5676.16    29.788155     9.212276
5676.77    36.046963     7.564962
5677.38    35.894802     9.794431
5677.98    32.471001    10.828608
5678.59    33.362476     8.438906
5679.20    37.360355     7.742702
5679.81    40.961048    12.277515
5680.41    40.412331    17.902454
5681.02    35.142998    14.032938
5681.63    38.407635     7.545439
5682.23    45.999924     6.994267
5682.84    38.141594    12.951190
5683.45    32.605373    15.099028
5684.06    35.252941    12.877213
5684.66    36.158058    13.046394
5685.27    35.593788    11.808918
5685.88    36.407593     8.235130
5686.48    37.181602     6.887332
5687.09    28.892654    14.871561
5687.70    26.385170    19.963266
5688.31    37.640957    14.635026
5688.91    40.369644    14.264795
5689.52    36.434677    16.719143
5690.13    34.922588    17.896255
5690.73    37.728870    20.016376
5691.34    35.923565    18.450026
5691.95    28.737644    14.952489
5692.56    27.942211    15.222402
5693.16    46.592968     9.174435
5693.77    62.116982     2.907432
5694.38    47.948666     8.158733
5694.98    38.686043    11.440777
5695.59    38.866497    10.947969
5696.20    37.095711    11.110215
5696.81    38.448818     9.845225
5697.41    40.192898     8.988144
5698.02    37.614975     9.901645
5698.63    31.350849    10.432436
5699.23    28.960005    11.868197
5699.84    30.027481    13.976843
5700.45    26.442251    13.845566
5701.05    28.484692    11.743111
5701.66    34.164852    11.134170
5702.27    32.063351    13.932706
5702.88    30.903429    11.430717
5703.48    32.078449     6.508602
5704.09    29.740314     7.194524
5704.70    21.853487    10.310867
5705.30    20.159952    12.255082
5705.91    28.978436    11.399387
5706.52    29.955471     8.831329
5707.13    32.166618     8.300415
5707.73    38.090607     9.957455
5708.34    30.452768     8.938306
5708.95    28.410414     7.623051
5709.55    36.063095     8.013336
5710.16    35.420033     8.889697
5710.77    36.700493     8.810035
5711.38    37.473068    10.459702
5711.98    28.760611    15.464098
5712.59    28.685520    13.721901
5713.20    33.317474     9.719192
5713.80    30.738827    12.101979
5714.41    29.656511    14.941842
5715.02    33.773327    14.367575
5715.63    40.266605    10.606554
5716.23    42.072803     7.285914
5716.84    32.647850     7.858678
5717.45    22.908833    10.912647
5718.05    34.618351    11.014103
5718.66    39.042988    11.772556
5719.27    30.815714    12.968385
5719.88    33.604210    10.657427
5720.48    37.918785    10.397662
5721.09    36.459221    10.779110
5721.70    32.302818     8.111234
5722.30    34.296680    10.354366
5722.91    38.611118    14.665096
5723.52    37.730186    14.493005
5724.13    33.907749    11.630146
5724.73    33.866116     9.659433
5725.34    39.358879     9.169422
5725.95    42.952057     6.837197
5726.55    42.122856     6.364173
5727.16    40.956039     7.993141
5727.77    44.484573     7.002805
5728.38    39.502510     8.403625
5728.98    29.631025    12.202764
5729.59    30.678089    12.776039
5730.20    32.573578     9.938330
5730.80    29.054129     8.022572
5731.41    24.553539     9.250488
5732.02    30.702709     6.166754
5732.63    35.978439     4.383206
5733.23    32.638596     7.882502
5733.84    40.449905     5.057676
5734.45    43.959286     3.572974
5735.05    36.263176     7.789383
5735.66    39.819328     7.288300
5736.27    40.508118     8.287726
5736.87    34.997627    12.003584
5737.48    38.194492    10.452984
5738.09    32.938290     7.743990
5738.70    22.547108     6.999986
5739.30    26.014650     7.614056
5739.91    34.189911     8.704004
5740.52    41.287094     8.887740
5741.12    44.754608     7.455398
5741.73    38.171448     5.984008
5742.34    36.414112     6.420063
5742.95    45.466305     8.002487
5743.55    40.954464     6.380702
5744.16    33.079208     4.747945
5744.77    32.934208     5.873482
5745.37    34.251240     7.582924
5745.98    41.572861     7.867773
5746.59    46.906155     6.982788
5747.20    35.174065     7.195669
5747.80    27.371780     9.713832
5748.41    27.991934    10.809783
5749.02    26.344532     7.490422
5749.62    26.944864     8.370563
5750.23    32.635303     9.699041
5750.84    37.171890     6.880733
5751.45    25.656605    10.898099
5752.05    20.277164    13.712996
5752.66    33.545532     9.372059
5753.27    36.747616     9.875749
5753.87    37.067623    10.733113
5754.48    41.859913     8.112124
5755.09    41.345222     6.919659
5755.70    35.971233     7.302605
5756.30    31.968096     8.026622
5756.91    34.156555     8.186871
5757.52    34.588985     7.561739
5758.12    32.919922     8.342678
5758.73    32.301506    11.528389
5759.34    25.402716    11.232277
5759.95    21.298273    10.089197
5760.55    28.390989    13.028676
5761.16    33.233837    17.201923
5761.77    34.187595    15.127096
5762.37    34.111557     7.534358
5762.98    32.672394     7.363848
5763.59    31.982737     9.474178
5764.20    33.911655     8.068137
5764.80    36.919804     6.031946
5765.41    32.025288    10.384596
5766.02    26.034046    16.080133
5766.62    32.660496    12.167863
5767.23    34.707455     8.201984
5767.84    27.614555    10.971853
5768.45    22.245617    17.432407
5769.05    30.325361    15.149153
5769.66    40.528587    10.557327
5770.27    40.387409    13.183403
5770.87    39.465687    16.430866
5771.48    40.453285    14.497355
5772.09    39.482906    10.072078
5772.69    31.863277    13.285544
5773.30    26.860264    16.898556
5773.91    27.993015    15.018797
5774.52    28.976017    10.647521
5775.12    32.236671     7.987388
5775.73    34.978729     8.068921
5776.34    32.848991     9.326628
5776.94    36.271233    11.300560
5777.55    41.356140    11.839063
5778.16    38.517391    10.153780
5778.77    33.216969    10.815562
5779.37    34.539429    10.290790
5779.98    40.943481     7.067863
5780.59    35.433140     9.497284
5781.19    33.153393    10.311065
5781.80    38.182972     6.192890
5782.41    28.426388     6.597895
5783.02    25.122904     9.010517
5783.62    30.996624    11.041616
5784.23    23.880922    13.633945
5784.84    21.719355    13.215916
5785.44    30.026680    12.092196
5786.05    36.647202    14.531643
5786.66    34.546452    14.307208
5787.27    32.423153    14.603253
5787.87    36.947044    19.339016
5788.48    32.260494    19.134052
5789.09    28.190197    16.485779
5789.69    32.041203    16.785082
5790.30    26.446278    18.174992
5790.91    21.296072    17.035622
5791.52    28.266136    14.081694
5792.12    42.804695    14.173361
5792.73    46.047142    12.681483
5793.34    38.827351     8.885911
5793.94    38.733692     8.416397
5794.55    37.716705    13.938987
5795.16    37.525864    17.905680
5795.77    43.592293    12.693996
5796.37    39.656452     9.723265
5796.98    32.083328     9.962965
5797.59    31.525526    10.319468
5798.19    26.242115    15.327124
5798.80    23.317774    17.742760
5799.41    31.420313    12.745180
5800.02    42.896339     8.628647
5800.62    37.420620    10.891963
5801.23    23.075830    15.004870
5801.84    33.939789    10.267483
5802.44    43.481415     4.867512
5803.05    42.020054     4.029264
5803.66    44.861683     5.655774
5804.27    41.745384     9.741165
5804.87    32.647335    11.891481
5805.48    28.257154     9.266184
5806.09    34.447559    10.673448
5806.69    38.718872    11.415974
5807.30    33.410553     6.615237
5807.91    36.673546     6.273540
5808.51    44.102036     6.564502
5809.12    43.731003     4.906762
5809.73    34.342125     8.073559
5810.34    40.083088     7.602674
5810.94    56.946083     3.012578
5811.55    50.577137     5.508628
5812.16    34.989166    10.527466
5812.76    31.607925    11.873856
5813.37    44.926762     8.297659
5813.98    45.626858     6.052617
5814.59    34.117729     7.469755
5815.19    28.990105    10.421741
5815.80    31.370083    11.398090
5816.41    36.227036     9.001369
5817.01    40.195328     6.684995
5817.62    45.476906    11.603212
5818.23    48.497822    13.194521
5818.84    45.486847     8.175857
5819.44    38.031403     9.658154
5820.05    36.958466    10.720726
5820.66    39.975903     9.000640
5821.26    33.656754    11.444057
5821.87    26.686520    14.474070
5822.48    26.353521    14.892271
5823.09    31.970745    12.834851
5823.69    36.736870    10.665793
5824.30    36.429142    10.036409
5824.91    33.114750    10.263646
5825.51    35.637726     7.934701
5826.12    39.834587     5.610188
5826.73    38.636253     6.618820
5827.34    32.990486    10.003651
5827.94    31.541059    12.922956
5828.55    35.841068    13.073603
5829.16    36.632507    10.933597
5829.76    32.259956    12.789137
5830.37    27.929415    15.991756
5830.98    29.363827    12.451482
5831.59    29.537134    10.668351
5832.19    27.893234    12.176984
5832.80    29.089764    12.252178
5833.41    32.621376    11.160427
5834.01    35.396915     9.598435
5834.62    35.250683     8.186847
5835.23    34.325897     7.750020
5835.84    38.227581     8.256863
5836.44    43.216778     9.747947
5837.05    34.995396    12.322190
5837.66    29.306652    12.576947
5838.26    34.919128    10.027628
5838.87    39.987282     8.299056
5839.48    34.252132     7.967385
5840.09    26.962240     7.969316
5840.69    33.890110     7.664005
5841.30    39.617897     9.479008
5841.91    40.039291    10.977352
5842.51    39.686951     9.880301
5843.12    35.447639    12.225851
5843.73    31.323988    15.654507
5844.33    33.057606    15.400378
5844.94    40.493561    12.285854
5845.55    46.589321    11.112437
5846.16    46.242638    11.203875
5846.76    41.905716     5.890701
5847.37    42.288960     4.732080
5847.98    46.026863     9.082360
5848.58    43.204617     9.831965
5849.19    38.333824    11.159388
5849.80    34.557991    13.068475
5850.41    31.596254    12.227807
5851.01    30.337606    12.655311
5851.62    28.213104    17.574190
5852.23    24.962135    23.791286
5852.83    28.279415    19.981634
5853.44    33.003193    13.668007
5854.05    33.901199    12.982805
5854.66    35.540825    12.319319
5855.26    37.980343     9.668200
5855.87    37.136505     8.907829
5856.48    30.326986    14.974598
5857.08    31.443008    16.323856
5857.69    39.377724    11.749560
5858.30    40.454758    10.300599
5858.91    39.830750     8.900207
5859.51    41.433586     6.673216
5860.12    43.854233     5.821719
5860.73    42.486103     7.297266
5861.33    37.472885     9.512932
5861.94    33.848763    10.817326
5862.55    37.271290    12.089943
5863.16    33.579208    15.787066
5863.76    23.163086    19.079535
5864.37    29.598053    14.981895
5864.98    31.301037    16.186350
5865.58    26.049639    20.976250
5866.19    37.026131    13.842791
5866.80    44.009468    11.034068
5867.41    39.168556    15.426755
5868.01    33.446251    16.836605
5868.62    35.207901    17.511093
5869.23    39.528923    16.368668
5869.83    39.811939    12.540260
5870.44    41.622108    12.102816
5871.05    39.035362    13.134277
5871.66    32.935085    12.958411
5872.26    39.286938    13.629615
5872.87    39.725143    11.428720
5873.48    29.188717     8.948196
5874.08    28.529837    14.297064
5874.69    30.646439    14.687157
5875.30    29.923862     9.831033
5875.91    29.961742    11.514309
5876.51    33.903408    14.927023
5877.12    32.659405    14.495395
5877.73    23.060768     9.969191
5878.33    32.132713     8.295012
5878.94    44.483456     9.273663
5879.55    39.473145     9.916874
5880.15    33.110168    10.075991
5880.76    37.149307     7.616267
5881.37    45.852489     4.941464
5881.98    41.122406     8.611171
5882.58    38.200123     9.034576
5883.19    42.056850     4.928159
5883.80    40.012833     5.742978
5884.40    35.323204     8.641376
5885.01    32.924332    10.036606
5885.62    34.271587    10.251781
5886.23    36.338501    14.417022
5886.83    36.958324    18.414227
5887.44    36.139648    19.198410
5888.05    35.610039    26.250755
5888.65    32.272213    33.832680
5889.26    27.984802    33.538509
5889.87    32.196209    26.881664
5890.48    35.409512    26.384113
5891.08    34.987926    31.986137
5891.69    38.969616    29.953482
5892.30    35.229034    26.659437
5892.90    26.495789    27.199333
5893.51    27.172365    28.767834
5894.12    33.147114    23.939438
5894.73    40.540752    20.154066
5895.33    47.613434    23.395781
5895.94    50.781284    16.896881
5896.55    39.171970    16.274162
5897.15    21.370583    27.655869
5897.76    32.594292    19.476521
5898.37    38.026714    10.439131
5898.98    25.179043    12.960013
5899.58    31.589411    10.480143
5900.19    36.177319     9.031590
5900.80    33.058849     9.938052
5901.40    38.046127     7.411824
5902.01    36.433529     8.266527
5902.62    31.956871     9.831393
5903.23    36.084145     6.595475
5903.83    36.490417     6.693264
5904.44    35.072357     9.833899
5905.05    38.228321    11.831244
5905.65    42.359688    12.384391
5906.26    42.078785    13.836908
5906.87    39.023396    15.956036
5907.48    41.285492    14.747958
5908.08    40.505756    11.106424
5908.69    32.604454    10.110980
5909.30    23.872526    15.019418
5909.90    22.365726    14.276170
5910.51    30.798981     9.629562
5911.12    43.089897     9.866825
5911.73    43.440529     9.244871
5912.33    31.241737     9.577630
5912.94    19.529570    14.082119
5913.55    24.194736    17.867304
5914.15    31.298946    19.191982
5914.76    33.392334    17.360792
5915.37    45.196899    11.757767
5915.97    49.665047     7.702331
5916.58    40.788601     8.040817
5917.19    33.500652    10.378944
5917.80    31.465380    10.847137
5918.40    32.030846     8.630503
5919.01    31.386358     6.197282
5919.62    30.110222     6.985769
5920.22    28.639526     9.516394
5920.83    29.696243    10.222579
5921.44    39.129868     8.229362
5922.05    43.810772     6.921112
5922.65    35.170151     7.913895
5923.26    25.655441     8.121196
5923.87    31.012091     8.039715
5924.47    42.011585     9.014239
5925.08    33.077400    11.539852
5925.69    25.511612    14.905715
5926.30    27.256580    15.810776
5926.90    28.587036    11.674798
5927.51    30.352358     7.379098
5928.12    34.013794     7.631912
5928.72    37.188538    11.611279
5929.33    33.706455    10.884750
5929.94    35.181076    10.674134
5930.55    46.065399    14.688995
5931.15    49.817127    15.186698
5931.76    47.912014    12.921101
5932.37    41.989483    13.003541
5932.97    30.258825    18.401131
5933.58    27.293835    19.414522
5934.19    33.715763    14.388925
5934.80    35.893291    10.825012
5935.40    26.583309    13.624772
5936.01    25.057390    15.682981
5936.62    40.020775    11.497571
5937.22    32.364128    12.346633
5937.83    26.523735    13.826586
5938.44    40.937477    11.208279
5939.05    41.433002    10.887556
5939.65    39.374241    10.508572
5940.26    41.999245     8.999427
5940.87    37.147831     9.500753
5941.47    34.591713    10.435938
5942.08    36.046898    11.094763
5942.69    34.206402    11.924444
5943.30    30.120739    11.640074
5943.90    24.623943    10.906363
5944.51    17.667610    12.160676
5945.12    11.455684    17.214315
5945.72    21.112167    18.182245
5946.33    37.972321    13.281060
5946.94    22.527718    13.667794
5947.55    13.275577    12.674784
5948.15    28.114527     8.991838
5948.76    35.956184    10.931994
5949.37    30.485920    11.997538
5949.97    25.164228     9.671489
5950.58    32.783306     8.348526
5951.19    35.546288    12.409048
5951.79    32.375824    16.306602
5952.40    31.164597    14.489190
5953.01    30.558516    13.127884
5953.62    33.927155    12.896234
5954.22    37.333046    12.115862
5954.83    27.865353    10.893737
5955.44    22.577065    11.894526
5956.04    30.229338    12.965711
5956.65    37.243378     9.953432
5957.26    25.022696    13.063454
5957.87    14.627272    16.790537
5958.47    33.048317    10.978354
5959.08    39.756653    12.125731
5959.69    33.917168    14.641905
5960.29    33.698677     9.605904
5960.90    34.510933     9.777553
5961.51    28.750195    10.686995
5962.12    23.605036     9.809596
5962.72    38.223373    15.327715
5963.33    48.223579    15.469081
5963.94    43.762573     9.879085
5964.54    40.111538    11.075524
5965.15    37.108097    12.082500
5965.76    34.790817    10.862377
5966.37    33.236427    11.386683
5966.97    26.606167    14.144629
5967.58    21.508827    14.443036
5968.19    25.680365     9.813258
5968.79    34.785446     5.883647
5969.40    40.103897     5.127814
5970.01    39.988541     7.811944
5970.62    41.451298    12.251726
5971.22    41.514637    11.796785
5971.83    36.402477     8.987080
5972.44    27.767645    11.809020
5973.04    26.707191    13.607355
5973.65    33.530422    11.313807
5974.26    37.907730     8.141881
5974.87    28.952328     9.951571
5975.47    23.315145    14.167548
5976.08    31.934370    15.996083
5976.69    36.126717    14.932347
5977.29    33.069427    13.555934
5977.90    29.010649    12.019448
5978.51    30.714420     8.527990
5979.12    36.145161     9.421940
5979.72    36.357498    14.558711
5980.33    26.967617    16.826836
5980.94    26.247225    11.692312
5981.54    35.387680     6.518574
5982.15    42.064850     7.790846
5982.76    37.064415     7.068316
5983.36    35.026802     5.970435
5983.97    40.077297     6.953383
5984.58    33.224140     6.841552
5985.19    33.979332     7.764801
5985.79    43.116722     8.983340
5986.40    37.767448     7.669824
5987.01    29.942787    10.484064
5987.61    26.648949    12.707128
5988.22    25.774750     7.248331
5988.83    27.321043     5.726429
5989.44    27.672743     9.057808
5990.04    26.668587    11.122147
5990.65    31.954426     8.401197
5991.26    37.727940     7.344100
5991.86    37.127270     9.952656
5992.47    30.498934     9.986476
5993.08    24.088354    10.848269
5993.69    25.705479    11.926582
5994.29    37.792866     9.133759
5994.90    47.277912     6.678937
5995.51    48.704109     7.503703
5996.11    44.354305     9.949001
5996.72    38.062042     8.185459
5997.33    34.257671     7.479330
5997.94    37.240990     9.979239
5998.54    47.144096     7.789513
5999.15    45.657047     8.172220
5999.76    34.810982    13.137963
6000.36    35.398861    14.814990
6000.97    34.180855    11.363797
6001.58    32.440815     6.374975
6002.19    38.356636     5.279527
6002.79    35.917877     9.651983
6003.40    31.846315    13.502441
6004.01    34.073544    12.323574
6004.61    30.092051    10.772720
6005.22    28.789890    11.832172
6005.83    32.966995    13.033886
6006.44    30.948189     9.373661
6007.04    30.901390     8.098050
6007.65    35.480457     8.882771
6008.26    37.738026     6.283686
6008.86    33.180508     7.654850
6009.47    30.291737    10.118973
6010.08    32.760441     8.981055
6010.69    23.369419    10.844057
6011.29    20.954813    11.610149
6011.90    30.832626     9.090645
6012.51    23.749359     9.622570
6013.11    18.405857     9.521742
6013.72    20.965130     9.101569
6014.33    16.024157    12.421309
6014.94    13.132880    11.592406
6015.54    18.664335     7.346862
6016.15    27.897392     5.899342
6016.76    27.520201     7.017159
6017.36    23.062069     8.204381
6017.97    24.436047     8.044374
6018.58    30.835819     7.845376
6019.18    35.165501     8.331890
6019.79    32.920151    10.037937
6020.40    26.965591    12.259901
6021.01    27.726589     9.771738
6021.61    30.965292     7.097735
6022.22    25.517441    10.484751
6022.83    16.926006     9.456296
6023.43    14.450036     6.706273
6024.04    20.837746     8.524313
6024.65    27.097757    11.162107
6025.26    29.484938     9.588022
6025.86    30.925694     6.014727
6026.47    37.598576     7.792398
6027.08    47.544163     5.977519
6027.68    53.067024     3.149039
6028.29    46.970390     8.928946
6028.90    33.458195    13.360418
6029.51    30.544706    12.341973
6030.11    41.502430     9.276696
6030.72    34.164257     9.642897
6031.33    26.304205    11.652631
6031.93    33.578510    11.141315
6032.54    38.904213     7.062624
6033.15    34.023560     6.879720
6033.76    24.350330    11.381578
6034.36    21.829346    13.575518
6034.97    27.185341    10.088547
6035.58    29.369562     8.515652
6036.18    24.654078    12.893126
6036.79    33.095676     8.836349
6037.40    40.992458     4.583482
6038.01    33.852310     7.745619
6038.61    22.334709     9.891326
6039.22    25.131598     9.701027
6039.83    36.375561     8.981251
6040.43    35.785366     8.665035
6041.04    40.336987     5.775140
6041.65    43.018093     4.227391
6042.26    30.689388     7.500500
6042.86    23.600388     7.856197
6043.47    27.132164     9.083256
6044.08    32.882767    12.895537
6044.68    30.511757    10.713592
6045.29    32.639988     5.597341
6045.90    41.373295     4.112358
6046.51    43.429687     8.625807
6047.11    37.848942    10.181876
6047.72    35.622169     8.920649
6048.33    41.171730     9.781642
6048.93    33.960346    10.140199
6049.54    30.081768    10.004229
6050.15    37.860916    10.029604
6050.76    31.089317     9.367464
6051.36    24.378473     8.851568
6051.97    24.959356     9.017880
6052.58    23.485857     9.212491
6053.18    31.925629     8.156364
6053.79    40.240040     6.860910
6054.40    33.154270     7.484659
6055.00    26.880627    10.043203
6055.61    28.314470     8.596438
6056.22    34.453285     3.225571
6056.83    38.556931     4.438773
6057.43    38.400166     6.446619
6058.04    37.005604     7.122849
6058.65    38.162533    10.589241
6059.25    36.006035     9.195242
6059.86    34.247341     5.718771
6060.47    39.421730     6.735080
6061.08    45.115311     6.751672
6061.68    42.943985     5.754900
6062.29    36.136131     5.925126
6062.90    39.911957     7.212690
6063.50    40.979145     8.627464
6064.11    35.810406     8.969046
6064.72    34.524509     8.062810
6065.33    27.322622     8.716681
6065.93    22.242313    10.202892
6066.54    30.134449    10.772274
6067.15    35.583141    12.324548
6067.75    35.715664    12.818979
6068.36    32.425945    11.121007
6068.97    25.295082     9.778624
6069.58    23.178041     7.875701
6070.18    28.525091     5.916103
6070.79    35.155228     5.848467
6071.40    39.238556     6.122780
6072.00    39.877331     5.927527
6072.61    37.085773     6.500984
6073.22    30.929234    10.219349
6073.83    32.191769    11.921123
6074.43    40.767860    10.043583
6075.04    40.618263    10.372571
6075.65    41.281658     8.147926
6076.25    42.717354     4.925020
6076.86    35.980213     7.510153
6077.47    32.940754    11.737005
6078.08    37.771870    10.996452
6078.68    42.445988     4.791760
6079.29    34.105362     3.048710
6079.90    28.767431     4.744181
6080.50    31.044268     6.948980
6081.11    24.184677     9.702189
6081.72    27.025293     8.990373
6082.33    35.262913     8.292885
6082.93    29.341400    12.427532
6083.54    23.910503    11.453383
6084.15    26.579727     8.713653
6084.75    31.894533     9.864086
6085.36    28.598310     9.712713
6085.97    28.452055     8.485401
6086.58    35.100849     8.003132
6087.18    35.370773     8.662430
6087.79    27.615988     9.297884
6088.40    23.318094     8.797580
6089.00    29.384048     7.841639
6089.61    26.896233     9.755855
6090.22    26.842588    10.854962
6090.82    37.313972     9.088329
6091.43    38.928810     9.202989
6092.04    32.083458     7.862056
6092.65    24.638571     6.027287
6093.25    24.653944     8.390506
6093.86    38.388096     8.472668
6094.47    46.573219     6.825838
6095.07    36.905590     7.659598
6095.68    40.392830     9.231031
6096.29    42.600193     7.974827
6096.90    35.077499     5.036044
6097.50    38.700798     6.511535
6098.11    34.111809     9.487548
6098.72    27.357506     9.797201
6099.32    39.158405     6.768827
6099.93    41.937786     5.426207
6100.54    39.044003     6.334417
6101.15    39.748165     7.037720
6101.75    29.176306     5.923129
6102.36    29.391720     4.486639
6102.97    42.169998     5.055844
6103.57    40.507477     7.747071
6104.18    39.607117     6.588116
6104.79    40.536335     5.282688
6105.40    34.957279     9.293736
6106.00    33.998821    10.074567
6106.61    36.995316     8.660758
6107.22    34.635887     9.787113
6107.82    22.124660    13.522291
6108.43    25.058594    12.239861
6109.04    37.349483     6.554667
6109.65    31.159966     5.120652
6110.25    29.594622     9.370680
6110.86    35.287910    10.047213
6111.47    35.744831     3.545149
6112.07    28.296383     4.561666
6112.68    25.199690     7.899008
6113.29    30.040920     7.999876
6113.90    31.339592     8.579874
6114.50    26.473505     9.509877
6115.11    23.110880     8.576228
6115.72    27.800425     6.013312
6116.32    30.987183     8.237950
6116.93    32.853825     9.757943
6117.54    35.828922     6.262874
6118.15    35.941902     4.037945
6118.75    27.386776     4.593524
6119.36    21.276583     6.093210
6119.97    31.525970     6.649250
6120.57    33.293858     8.305913
6121.18    33.615582     8.678555
6121.79    43.365803     6.244849
6122.40    40.222431     5.929500
6123.00    34.697067     5.513767
6123.61    32.899452     3.984768
6124.22    25.374388     4.787575
6124.82    26.648979     8.525581
6125.43    35.441254     9.547434
6126.04    38.448280     5.306028
6126.64    34.034481     7.507677
6127.25    30.549959    10.068394
6127.86    31.941505     7.151305
6128.47    31.066996     5.711072
6129.07    25.483356     6.855792
6129.68    22.182943     8.005630
6130.29    27.685318     7.136659
6130.89    28.751905     7.603353
6131.50    22.917807     9.629144
6132.11    18.768101    10.226091
6132.72    26.178341     6.610056
6133.32    35.913395     4.960835
6133.93    37.833092     5.981133
6134.54    31.035664     4.710934
6135.14    23.883091     7.609545
6135.75    27.284910     9.680336
6136.36    39.815453     5.468724
6136.97    38.591221     5.761181
6137.57    29.519733     7.053883
6138.18    26.995167     6.000542
6138.79    33.006065     7.370852
6139.39    27.287615    12.037125
6140.00    21.862135    13.556504
6140.61    33.918583     8.533835
6141.22    27.823681    10.466866
6141.82    17.186560    17.319359
6142.43    25.097477    20.088264
6143.04    43.472908    14.792831
6143.64    49.246746     7.005230
6144.25    42.242382     2.809641
6144.86    37.858292     4.121894
6145.47    29.119112     7.089446
6146.07    25.683697     7.803464
6146.68    31.773655     6.899206
6147.29    28.205660     9.686373
6147.89    23.830980    10.978689
6148.50    25.153326    10.019843
6149.11    26.695166    11.163542
6149.72    27.261820     8.808506
6150.32    26.784475     5.573733
6150.93    26.724838     7.332041
6151.54    30.284849    12.306019
6152.14    34.810455    11.022842
6152.75    35.942112     3.805994
6153.36    33.116539     1.735367
6153.97    35.468117     2.871510
6154.57    39.241695     5.878881
6155.18    37.984303     9.034033
6155.79    40.535187     6.107801
6156.39    43.909073     3.958137
6157.00    41.009136     6.995704
6157.61    30.652687    10.005378
6158.22    24.698357    12.395420
6158.82    26.732079    15.809258
6159.43    31.230257    19.146013
6160.04    33.236206    14.914610
6160.64    32.545444     7.493677
6161.25    30.114307     4.018283
6161.86    26.879112     5.345372
6162.46    29.549358     5.833671
6163.07    34.326176     4.992947
6163.68    33.317966     6.388789
6164.29    33.056797     8.953786
6164.89    30.222681    10.019095
6165.50    26.814507     8.175695
6166.11    34.913448     5.273962
6166.71    33.896378     6.257832
6167.32    25.581287     9.184173
6167.93    29.379532     8.440284
6168.54    33.447777     7.213671
6169.14    33.986134     7.054734
6169.75    31.461416     7.888439
6170.36    23.774204     9.490309
6170.96    20.636787    10.111401
6171.57    24.550125    11.331974
6172.18    29.465267    15.259296
6172.79    34.807468    15.709316
6173.39    37.025959    11.254423
6174.00    34.335335     7.031277
6174.61    31.425991    10.083863
6175.21    31.632915    12.307940
6175.82    35.516579     9.652187
6176.43    40.311821     6.587508
6177.04    40.099930     5.663752
6177.64    33.495178     8.088558
6178.25    27.068159    11.014168
6178.86    31.629009     8.016553
6179.46    36.440632     5.206759
6180.07    37.151211     6.156016
6180.68    38.721569     7.717732
6181.29    33.074146     7.990274
6181.89    27.258661     6.329014
6182.50    28.017151     5.676151
6183.11    26.371075    11.144796
6183.71    30.277855    12.051501
6184.32    34.794849     7.794400
6184.93    25.875137     8.055653
6185.54    20.592350     6.278327
6186.14    26.960340     5.422897
6186.75    36.618473     7.987599
6187.36    33.667671     5.347982
6187.96    27.870626     4.364160
6188.57    30.765602     5.971471
6189.18    40.983009     3.610867
6189.79    42.862404     3.086724
6190.39    37.246422     4.226981
6191.00    33.975815     4.858781
6191.61    37.175606     6.773167
6192.21    42.365906     5.934802
6192.82    38.789974     2.757155
6193.43    23.050995     2.959594
6194.04    20.273087     7.852451
6194.64    28.551666     9.425788
6195.25    32.160629     5.178288
6195.86    27.219543     5.917229
6196.46    28.136215     4.042413
6197.07    31.758593     1.130686
6197.68    26.613165     5.911613
6198.28    35.043613     7.066908
6198.89    39.708912     6.014164
6199.50    26.750868     7.851710
6200.11    22.580490     9.308232
6200.71    30.028458     7.607022
6201.32    37.407612     4.742296
6201.93    33.954117     4.689026
6202.53    26.132431     6.011801
6203.14    25.084255     5.326487
6203.75    33.593658     3.942621
6204.36    41.860878     7.676089
6204.96    44.950871     8.731401
6205.57    42.182148     6.884058
6206.18    36.224297     7.782294
6206.78    32.064560     7.877652
6207.39    30.763435     6.250673
6208.00    30.019522     4.998709
6208.61    27.159283     6.346892
6209.21    25.002737     7.379032
6209.82    25.218864     6.806542
6210.43    27.404093     6.648168
6211.03    30.739058     9.794095
6211.64    32.053112    10.442182
6212.25    28.855276     7.983382
6212.86    22.960609     9.480607
6213.46    23.456877     9.534703
6214.07    29.512327     7.612786
6214.68    35.899090     6.281857
6215.28    43.111198     3.896250
6215.89    41.351280     3.053239
6216.50    31.400404     5.207456
6217.11    26.892834     8.268344
6217.71    29.132038     9.651008
6218.32    32.754189     8.381103
6218.93    34.696289     6.907971
6219.53    37.834518     9.482746
6220.14    32.873276     8.471284
6220.75    25.883625     4.873700
6221.36    31.319588     7.088586
6221.96    34.111076     9.587329
6222.57    28.175926     9.889135
6223.18    22.881853     8.147189
6223.78    30.938366     5.122009
6224.39    29.685894     6.863271
6225.00    21.455753    10.155071
6225.61    24.972891     8.389907
6226.21    27.399817     7.848505
6226.82    26.647305     7.682244
6227.43    27.019005     5.983061
6228.03    30.022182     4.522455
6228.64    31.364929     3.150762
6229.25    27.575827     3.332870
6229.86    23.518936     5.701435
6230.46    32.228127     7.008516
6231.07    34.567837     9.561111
6231.68    26.649240    12.003515
6232.28    27.235886    10.215538
6232.89    28.472870    11.441019
6233.50    29.836792    12.898459
6234.10    33.742374    11.890338
6234.71    35.515045    15.279865
6235.32    36.848091    14.326256
6235.93    38.051491    12.384681
6236.53    36.749237    18.319405
6237.14    32.730606    16.453897
6237.75    28.734734    12.100338
6238.35    27.004633    12.005363
6238.96    26.226477     9.863602
6239.57    21.548187     8.515777
6240.18    19.566315     9.255127
6240.78    25.427204    10.723993
6241.39    25.207033    12.221727
6242.00    24.204557    10.800410
6242.60    24.881788     7.891570
6243.21    22.932016     7.995452
6243.82    30.893707     7.078602
6244.43    35.191498     5.843213
6245.03    26.441723     6.012772
6245.64    26.182280     5.284265
6246.25    29.513199     5.116117
6246.85    29.857449     6.222575
6247.46    27.097456     7.681682
6248.07    21.428406     8.927114
6248.68    21.219482     8.570469
6249.28    24.992184     6.976332
6249.89    21.215933     6.700418
6250.50    25.284149     7.803569
6251.10    33.271072     7.611796
6251.71    33.989529     5.205156
6252.32    34.434982     5.012931
6252.93    29.216043     7.407146
6253.53    22.807877     8.963654
6254.14    25.028814     7.791876
6254.75    21.002180    10.749823
6255.35    18.640469    13.125851
6255.96    26.814629    11.993966
6256.57    34.625439    13.832513
6257.18    31.344883    12.451485
6257.78    22.364666    13.156709
6258.39    21.146030    19.144579
6259.00    30.593285    11.362968
6259.60    38.466892     7.422475
6260.21    35.223969    13.338773
6260.82    25.845119    12.743269
6261.43    28.842966    10.885534
6262.03    30.515949    11.464677
6262.64    20.315380    12.065899
6263.25    18.922901     8.460442
6263.85    28.619011     6.245615
6264.46    33.368191     5.742004
6265.07    26.111359     4.092188
6265.68    33.464592     4.930938
6266.28    37.164715     6.650316
6266.89    33.208805     6.969172
6267.50    40.188190     6.673864
6268.10    31.223385     8.702768
6268.71    29.373177     7.828166
6269.32    44.885639     3.090912
6269.92    32.342140     4.205450
6270.53    24.877947     4.814522
6271.14    30.863121     5.699740
6271.75    30.420160     9.875063
6272.35    28.015905     6.996246
6272.96    26.416405     5.219497
6273.57    27.235706     8.186133
6274.17    30.091198     8.315680
6274.78    26.480400     7.259838
6275.39    18.184162     7.129052
6276.00    16.772987     7.977944
6276.60    29.807983     8.233978
6277.21    30.422237     7.271978
6277.82    23.661703     5.633230
6278.42    26.261684     4.895703
6279.03    19.448801     6.729803
6279.64    22.457878     8.818098
6280.25    32.062527     8.887123
6280.85    24.237465     6.772807
6281.46    26.373104     3.797599
6282.07    26.999577     3.374668
6282.67    22.011753     5.000527
6283.28    35.977684     4.009423
6283.89    29.595982     5.652344
6284.50    14.292369    10.179836
6285.10    20.871378    12.179062
6285.71    28.344202     8.252898
6286.32    24.026936     8.108460
6286.92    18.003222    13.943432
6287.53    23.308558    18.481474
6288.14    22.167885    19.095575
6288.75    22.602013    14.324394
6289.35    26.973047     8.893540
6289.96    21.528725    10.303718
6290.57    20.311901    10.947400
6291.17    24.070738     7.633788
6291.78    25.949633     4.061211
6292.39    26.989964     4.810308
6293.00    30.371120     3.908013
6293.60    33.159710     3.488450
6294.21    32.079571     7.632407
6294.82    32.528019     7.551689
6295.42    29.825661     7.700413
6296.03    23.274830    14.157288
6296.64    19.871046    24.980278
6297.25    22.300484    30.287569
6297.85    21.577820    36.326309
6298.46    20.151392    49.362202
6299.07    31.273216    62.921066
6299.67    28.356153    68.134346
6300.28    22.084644    62.192097
6300.89    27.016567    51.524181
6301.50    20.351368    46.320042
6302.10    19.782957    35.242809
6302.71    22.269279    23.799412
6303.32    15.171160    22.584749
6303.92    21.562126    14.709764
6304.53    26.342001    10.957788
6305.14    21.489502    15.438729
6305.74    18.785833    16.884178
6306.35    14.737551    17.443430
6306.96    15.774957    15.941401
6307.57    27.515512    12.947497
6308.17    42.531029    12.494747
6308.78    43.536942     9.480721
6309.39    35.949024     6.649192
6309.99    33.017620     7.018854
6310.60    33.130909     5.477391
6311.21    27.874968     5.326654
6311.82    21.022243     5.900345
6312.42    20.784136     4.965965
6313.03    21.681362     6.733687
6313.64    16.112514     8.776932
6314.24    15.331112     7.521421
6314.85    29.572266     3.541189
6315.46    26.781538     2.728858
6316.07    24.482328     2.743790
6316.67    32.274052     2.013031
6317.28    28.964169     3.910299
6317.89    22.700933     8.323977
6318.49    18.985287     9.682229
6319.10    19.010515     6.993353
6319.71    23.420158     6.953891
6320.32    26.481920     6.329259
6320.92    23.267948     6.452299
6321.53    17.154661     8.908039
6322.14    19.489326     8.295187
6322.74    25.107544     4.839395
6323.35    28.487707     4.708120
6323.96    29.073002     8.948490
6324.57    27.956707     5.154189
6325.17    25.808773     3.259613
6325.78    23.756863     7.736294
6326.39    23.009903    10.207821
6326.99    23.144476     7.184586
6327.60    22.433153     6.926314
6328.21    18.409483    10.078872
6328.82    13.396250     8.891695
6329.42    22.426495    11.622156
6330.03    39.165241    11.961418
6330.64    43.733280     6.887863
6331.24    28.263542     6.132259
6331.85    27.690458     4.533036
6332.46    39.180008     2.796788
6333.07    40.161766     3.958362
6333.67    28.002014     5.968050
6334.28    17.921116     8.994259
6334.89    23.508213     9.558770
6335.49    35.920464     6.204277
6336.10    25.794424     5.145244
6336.71    21.252274     4.397943
6337.32    26.410374     4.237862
6337.92    24.903748     6.662708
6338.53    28.570932     8.349223
6339.14    25.579685     6.612623
6339.74    18.636122     5.160024
6340.35    22.217268     7.782431
6340.96    23.818697     6.841872
6341.56    19.233105     6.300207
6342.17    17.525625     6.825501
6342.78    25.241467     4.183350
6343.39    22.762726     5.687756
6343.99    20.722954     6.784371
6344.60    25.124794     4.930505
6345.21    23.323795     5.644168
6345.81    24.512520     6.461479
6346.42    25.850567     5.268857
6347.03    23.965693     4.021123
6347.64    24.637465     6.269613
6348.24    25.519066     7.569351
6348.85    28.627472     6.424913
6349.46    32.001297     5.000648
6350.06    26.930222     5.980193
6350.67    23.753822     9.373431
6351.28    25.988640     8.905843
6351.89    28.025194     4.070839
6352.49    25.099144     5.864127
6353.10    23.906883     7.404930
6353.71    27.204489     7.054478
6354.31    32.595230     7.950018
6354.92    37.088051     8.107909
6355.53    34.168415     7.901931
6356.14    31.301380     8.099395
6356.74    34.977818     8.102790
6357.35    31.485268     6.428718
6357.96    34.419346     6.540556
6358.56    36.894146     9.893190
6359.17    25.902618    12.245124
6359.78    25.674683     7.446029
6360.39    26.061859     7.664095
6360.99    24.273340    13.951175
6361.60    27.187143    17.368744
6362.21    21.565647    22.983112
6362.81    19.737562    28.244593
6363.42    23.063673    28.611145
6364.03    20.967525    23.258327
6364.64    25.274752    15.981487
6365.24    34.460709    11.266132
6365.85    34.786533     9.891941
6366.46    21.562138     9.198080
6367.06    21.768196     7.823212
6367.67    28.622936     6.438712
6368.28    28.520782     6.012800
6368.89    22.898050     6.138557
6369.49    20.601156     4.966460
6370.10    15.934642     6.160575
6370.71    11.023269     9.180398
6371.31    17.142723     8.477211
6371.92    23.852627     6.189367
6372.53    24.289438     4.286926
6373.14    21.953419     4.103786
6373.74    23.067257     5.186935
6374.35    20.307199     2.829292
6374.96    14.507506     3.055346
6375.56    10.851947     7.286451
6376.17    11.522951     7.524995
6376.78    14.154427     4.804898
6377.38    22.664946     4.565167
6377.99    29.976250     7.162819
6378.60    24.396803     7.282795
6379.21    28.968719     5.855879
6379.81    30.031130     4.567641
6380.42    21.651556     5.186681
6381.03    24.526659     7.767981
6381.63    29.633305     6.766228
6382.24    33.717606     3.966236
6382.85    33.541531     3.005242
6383.46    25.359146     3.784296
6384.06    24.014174     4.442391
6384.67    24.509108     5.777171
6385.28    25.589928     8.223673
6385.88    34.376389     9.365220
6386.49    29.447891     6.290905
6387.10    19.966394     5.667655
6387.71    17.957989     9.268973
6388.31    19.090860     8.958405
6388.92    23.942043     3.640344
6389.53    20.585840     5.823131
6390.13    14.135586    11.984725
6390.74    24.214565     5.405162
6391.35    33.162693     3.081533
6391.96    29.926918     4.206932
6392.56    25.275963     2.722851
6393.17    32.423706     0.942430
6393.78    28.288208     2.844706
6394.38    22.897997     4.008183
6394.99    22.634058     4.309137
6395.60    18.259176     8.344336
6396.21    21.206371     9.831062
6396.81    28.059370     7.596649
6397.42    28.221981     4.668781
6398.03    20.017239     4.580377
6398.63    18.037245     8.312519
6399.24    16.656181    10.490059
6399.85    18.376022     9.939758
6400.46    29.896980     9.330646
6401.06    29.984161     6.009477
6401.67    20.975889     5.531090
6402.28    17.464428     6.957807
6402.88    25.799934     5.152853
6403.49    32.107246     5.688154
6404.10    25.622171     8.990647
6404.71    19.060932     9.408434
6405.31    26.330643     4.405071
6405.92    28.926468     2.619361
6406.53    26.100983     3.950177
6407.13    25.479094     5.130019
6407.74    28.023746     5.000186
6408.35    24.482473     5.184878
6408.95    22.674572     4.168277
6409.56    24.516487     4.665539
6410.17    23.167957     8.868326
6410.78    16.440765    11.400711
6411.38    20.817299     8.255075
6411.99    30.153557     4.134444
6412.60    32.002663     4.005354
6413.20    32.208645     4.857026
6413.81    30.512165     4.971908
6414.42    23.761322     5.236555
6415.03    14.693996     6.016731
6415.63    14.409409     5.469479
6416.24    28.255379     3.421147
6416.85    32.278000     3.716811
6417.45    21.383986     6.096180
6418.06    22.580933     5.901728
6418.67    28.393616     7.640227
6419.28    26.951744     9.558775
6419.88    23.124584     8.735368
6420.49    26.391001     6.334714
6421.10    18.630352     5.287539
6421.70    19.224333     4.421065
6422.31    28.886488     2.640925
6422.92    25.833881     1.822212
6423.53    21.131804     4.743697
6424.13    26.643829     6.351701
6424.74    31.710133     6.057508
6425.35    26.133888     6.948391
6425.95    30.077873     6.726355
6426.56    31.435600     4.267805
6427.17    22.711395     3.194004
6427.78    15.950511     4.985050
6428.38    25.898781     4.275774
6428.99    29.660355     4.313827
6429.60    28.228191     5.194554
6430.20    28.869267     4.976035
6430.81    21.790873     4.210444
6431.42    18.853104     3.502988
6432.03    26.129108     2.525898
6432.63    31.741596     2.053545
6433.24    22.567783     3.600315
6433.85    20.883522     5.054649
6434.45    24.265585     4.274436
6435.06    23.575752     2.968926
6435.67    23.125946     3.888499
6436.28    33.199219     4.295254
6436.88    29.810417     6.898526
6437.49    19.084023     8.938073
6438.10    25.305170     6.208378
6438.70    31.138893     4.740081
6439.31    19.361191     6.047579
6439.92    13.928831     4.903481
6440.53    29.002974    -0.001025
6441.13    27.915346     0.004061
6441.74    23.465782     3.966722
6442.35    18.314037     6.360152
6442.95    15.361423     6.013938
6443.56    27.135746     6.344417
6444.17    34.532803     3.283035
6444.77    26.057695     2.606014
6445.38    17.002338     6.627613
6445.99    24.369658     8.289848
6446.60    21.614695     4.051045
6447.20    18.859772     1.168393
6447.81    21.313625     2.421688
6448.42    22.698748     3.937530
6449.02    29.095547     4.187833
6449.63    26.872417     3.627832
6450.24    21.062050     4.722121
6450.85    23.070099     7.014506
6451.45    26.364437     6.210657
6452.06    27.591938     6.470812
6452.67    26.008980     6.925713
6453.27    21.318712     5.886399
6453.88    17.321451     5.119732
6454.49    26.711452     4.692020
6455.10    33.524059     5.870276
6455.70    28.585308     6.968145
6456.31    23.910931     5.229441
6456.92    28.411018     3.662894
6457.52    25.040352     5.873174
6458.13    20.068581     8.184880
6458.74    23.998421     7.003193
6459.35    21.373560     6.459928
6459.95    28.959658     3.987694
6460.56    30.715797     3.569568
6461.17    21.827034     4.857474
6461.77    26.118238     1.942294
6462.38    17.855223     6.109063
6462.99    13.351534     9.907683
6463.60    21.645168     8.771762
6464.20    27.551708     7.305441
6464.81    30.618124     3.785326
6465.42    26.498516     7.676517
6466.02    23.075062    10.191826
6466.63    27.029781     3.972444
6467.24    27.624516     5.863403
6467.85    24.546947     8.308111
6468.45    20.188311     7.326531
6469.06    18.017775     7.278328
6469.67    19.792311    10.758154
6470.27    19.490570     9.611077
6470.88    19.012014    10.080506
6471.49    18.701103    11.903435
6472.10    16.176497     9.152500
6472.70    14.431586     8.101859
6473.31    18.036150     7.520070
6473.92    21.470482     6.858567
6474.52    22.172256     5.881639
6475.13    26.661840     3.295647
6475.74    24.125465     3.765936
6476.35    19.217899     5.939553
6476.95    17.892647     7.133692
6477.56    19.416557     7.106555
6478.17    25.634262     5.964639
6478.77    21.663778     7.103666
6479.38    17.756933     7.594496
6479.99    25.036186     4.985071
6480.59    23.499083     4.981877
6481.20    24.993790     4.100535
6481.81    29.766273     2.354404
6482.42    30.870722     2.090201
6483.02    27.716406     3.679625
6483.63    23.340542     5.613715
6484.24    24.939861     5.783686
6484.84    26.371496     4.782096
6485.45    22.023016     4.976643
6486.06    25.341290     6.222511
6486.67    28.941771     3.953240
6487.27    23.334236     3.999676
6487.88    17.148928     7.040472
6488.49    24.259247     4.437967
6489.09    21.945217     3.920712
6489.70    14.287920     6.743522
6490.31    19.414165     7.667396
6490.92    32.936676     4.113638
6491.52    22.441759     2.358727
6492.13    14.480095     6.210566
6492.74    20.447720     7.160127
6493.34    29.837406     2.664646
6493.95    31.874569     2.682623
6494.56    23.248449     4.546285
6495.17    20.187885     4.916603
6495.77    25.147346     5.419950
6496.38    26.999725     7.008115
6496.99    26.188831     5.189747
6497.59    26.967781     6.572861
6498.20    35.779709     7.973197
6498.81    34.663834     9.732533
6499.42     8.498125    18.125311
6500.02    19.958450    18.532022
6500.63    31.109085    12.122349
6501.24    22.736937     9.064034
6501.84    19.994907    10.007952
6502.45    25.549141     4.004408
6503.06    33.970707     4.960454
6503.67    34.627357     9.306124
6504.27    25.309818    10.100554
6504.88    18.713638    10.934839
6505.49    27.488930    10.714331
6506.09    30.907310     8.237718
6506.70    23.392353     5.191649
6507.31    19.022919     3.992573
6507.92    23.712824     4.662479
6508.52    26.485359     6.007374
6509.13    22.223606     5.106107
6509.74    24.131250     2.609544
6510.34    36.811062     1.977939
6510.95    29.065893     2.690063
6511.56    31.475363     3.583095
6512.17    31.589193     6.521840
6512.77    17.353941     8.887060
6513.38    20.848202     4.678600
6513.99    24.282330     3.124646
6514.59    26.581705     2.206806
6515.20    25.802408     2.751756
6515.81    20.016460     5.996758
6516.41    22.623100     3.583860
6517.02    26.479420     3.561829
6517.63    29.192747     3.168355
6518.24    25.190100     2.387640
6518.84    14.887190     5.972667
6519.45    25.976360     2.769766
6520.06    23.979294     4.285002
6520.66    13.025637     8.980519
6521.27    17.658113     7.765224
6521.88    24.755400     5.653988
6522.49    21.723078    10.294146
6523.09    24.562426    10.850801
6523.70    29.914215     6.049010
6524.31    23.065619     5.976305
6524.91    18.251011     8.941561
6525.52    13.730864     6.346660
6526.13    20.385983     3.420316
6526.74    30.249634     4.051024
6527.34    24.300587     3.146279
6527.95    25.728374     1.822179
6528.56    18.054012     3.717542
6529.16    17.245956     7.046506
6529.77    29.291279     7.953068
6530.38    22.058073     7.004423
6530.99    22.807539     8.205378
6531.59    29.572985     9.388061
6532.20    32.208122     6.613412
6532.81    29.870632     3.005576
6533.41    25.606224     6.922970
6534.02    25.242659     9.451008
6534.63    29.341351     7.925041
6535.24    26.894457     7.292522
6535.84    17.041050     9.017256
6536.45    24.690676     6.449717
6537.06    26.186190     7.167934
6537.66    21.615704     7.190541
6538.27    22.428949     4.983676
6538.88    26.511429     6.095953
6539.49    30.248749     2.779656
6540.09    22.204607     3.359700
6540.70    20.195974     7.112673
6541.31    31.924154     6.672469
6541.91    30.470083     3.885753
6542.52    18.455177     7.772614
6543.13    19.002871     7.630917
6543.74    26.079062     4.754474
6544.34    21.447874     7.200716
6544.95    14.176218     9.053018
6545.56    19.126379     7.288540
6546.16    25.399530     4.902017
6546.77    25.976156     3.714262
6547.38    23.898586     2.991271
6547.99    17.414288     2.933878
6548.59    13.910062     3.199950
6549.20    18.078604     2.389177
6549.81    23.794224     2.335253
6550.41    24.964008     4.959931
6551.02    27.419937     6.550035
6551.63    22.577003     8.313040
6552.23    23.732182     6.187690
6552.84    30.317316     6.138378
6553.45    25.314257    13.874602
6554.06    21.302181     9.793983
6554.66    22.002916     7.111720
6555.27    28.551359     8.418167
6555.88    29.651899     6.166706
6556.48    17.496269     1.993041
6557.09    19.024048     5.884834
6557.70    17.786112     5.970279
6558.31    17.465206     3.553729
6558.91    20.628006     4.016169
6559.52    15.055695     4.688749
6560.13    20.834053     9.297596
6560.73    22.873236     8.042888
6561.34    25.705925     6.454501
6561.95    29.221687    10.463285
6562.56    17.674429    11.932342
6563.16    20.382364    12.622281
6563.77    20.274906    13.634610
6564.38    23.763332    11.534066
6564.98    30.254633     9.188999
6565.59    16.609825    12.169850
6566.20    23.933527     6.098440
6566.81    23.921812     4.507427
6567.41    24.246937     5.386416
6568.02    29.839157     4.432529
6568.63     8.772526    11.404211
6569.23    11.224202    10.987284
6569.84    28.726168     5.751673
6570.45    30.173487     4.231751
6571.06    15.627304     6.074941
6571.66    13.999946     5.117853
6572.27    24.501524     5.010112
6572.88    21.012354     4.590631
6573.48    14.992837     6.197843
6574.09    20.376196     9.058771
6574.70    19.205891     7.200549
6575.31    19.710722     6.598099
6575.91    23.538603     3.790000
6576.52    19.826811     6.955884
6577.13    14.451695    12.732485
6577.73    23.568686     5.328105
6578.34    19.654179     9.295427
6578.95    20.295120     9.566918
6579.56    24.694603     6.917622
6580.16    25.584845     7.766500
6580.77    30.842976     4.199166
6581.38    27.826040     4.553578
6581.98    23.707777     4.961527
6582.59    20.201645     5.683291
6583.20    15.184396     6.957213
6583.81    12.930017     5.127949
6584.41    16.501202     4.102973
6585.02    20.192778     3.869081
6585.63    18.339249     4.334341
6586.23    16.322981     5.089265
6586.84    20.865841     5.013925
6587.45    21.378349     4.372453
6588.05    20.299269     2.889733
6588.66    19.830105     4.339130
6589.27    20.230280     5.658847
6589.88    22.977270     3.000682
6590.48    27.707989     5.038809
6591.09    25.138897     1.677457
6591.70    19.059958     1.075049
6592.30    13.260362     6.222276
6592.91    12.257383     6.904877
6593.52    24.446507     3.166100
6594.13    24.043943     5.659788
6594.73    18.936827     6.354265
6595.34    17.496967     5.363228
6595.95    17.150423     6.902133
6596.55    20.578793     3.349898
6597.16    22.012228     3.980206
6597.77    26.483255     5.956831
6598.38    33.143253     8.023470
6598.98    34.775764     8.635190
6599.59    31.244394     3.429272
6600.20    30.974688     2.310005
6600.80    29.727646     4.801811
6601.41    26.823643     6.271361
6602.02    21.466301     7.532925
6602.63    14.980222    10.032475
6603.23    21.841881     6.180552
6603.84    25.167273     4.151310
6604.45    19.975334     6.277730
6605.05    20.940350     6.415619
6605.66    30.029491     2.971365
6606.27    23.529795     4.867872
6606.88    20.715179    10.389418
6607.48    16.536697     8.306556
6608.09    13.521790     3.287755
6608.70    20.655209     4.012896
6609.30    24.318998     3.038795
6609.91    19.084908     3.878569
6610.52    20.704708     2.947855
6611.13    26.446791     2.236769
6611.73    24.084520     2.822823
6612.34    19.014175     1.831812
6612.95    23.486876     7.022917
6613.55    25.784880     6.390355
6614.16    27.476240     2.916589
6614.77    30.090050     3.256771
6615.38    25.907722     5.029825
6615.98    18.649750     6.438601
6616.59    19.738813     1.908751
6617.20    20.525618     0.066712
6617.80    21.097904     2.803081
6618.41    26.368319     4.072631
6619.02    25.677174     4.116004
6619.63    19.040010     2.954940
6620.23    20.178854     4.270447
6620.84    20.634014     4.362061
6621.45    17.183075     3.216697
6622.05    22.819540     5.035171
6622.66    24.610119     1.468324
6623.27    21.269339     2.872612
6623.87    23.461723     3.061058
6624.48    24.907003     3.018338
6625.09    17.720051     8.134960
6625.70    17.186262     6.362505
6626.30    14.105465     6.149639
6626.91    17.732742     8.434075
6627.52    22.825464     5.980527
6628.12    20.504271     2.059350
6628.73    20.734285     5.876753
6629.34    27.081512     4.764657
6629.95    20.091055     2.993280
6630.55    17.213699     3.346161
6631.16    22.417845     4.183754
6631.77    16.441359     3.932570
6632.37     8.980371     3.543450
6632.98    15.600729     8.285907
6633.59    20.671606     6.196454
6634.20    17.206234     2.981976
6634.80    15.221887     5.012428
6635.41    17.986002     3.044390
6636.02    15.962880     3.817100
6636.62    19.181465     3.317537
6637.23    17.180714     3.660432
6637.84    17.352203     5.233011
6638.45    25.900089     4.974048
6639.05    15.921585     4.280380
6639.66    17.157354     1.871162
6640.27    14.579942     4.808284
6640.87    13.912449     6.602493
6641.48    20.516758     3.669805
6642.09    19.976751     3.997087
6642.70    26.102921     3.322717
6643.30    25.562317     2.026799
6643.91    23.677332     2.817845
6644.52    23.599104     4.263393
6645.12    21.920790     3.915392
6645.73    21.272802     3.886835
6646.34    16.606892     5.790896
6646.95    18.348167     4.924602
6647.55    22.102020     4.024669
6648.16    19.953876     5.322438
6648.77    19.294844     4.879515
6649.37    26.918802     2.139788
6649.98    18.673512     3.705120
6650.59    10.382916     6.633242
6651.20    15.554893     6.387614
6651.80    24.032866     3.348006
6652.41    23.055475     1.983562
6653.02    17.574436     4.816962
6653.62    17.901396     2.963852
6654.23    15.698210     2.892446
6654.84    15.387087     5.650739
6655.45    18.590990     6.031655
6656.05    12.950453     6.049479
6656.66    20.041660     4.997853
6657.27    15.972478     5.977225
6657.87    15.510189     4.436564
6658.48    21.163618     1.732039
6659.09    18.000027     3.154979
6659.69    22.455532     4.000289
6660.30    23.977356     3.802409
6660.91    19.613707     5.039504
6661.52    18.844280     3.419577
6662.12    22.741991    -0.762598
6662.73    21.792665     0.217417
6663.34    18.529549     5.528565
6663.94    25.602009     5.167591
6664.55    18.950933     2.403125
6665.16    19.751574     2.509506
6665.77    32.693943     4.264910
6666.37    24.878328     3.976496
6666.98    24.831541     2.234454
6667.59    31.280888     1.830283
6668.19    24.273792     2.317377
6668.80    13.127530     3.792916
6669.41    18.405445     4.979768
6670.02    29.977898     4.981627
6670.62    22.435637     8.602715
6671.23    14.883614     7.530492
6671.84    18.220898     4.342939
6672.44    25.219883     2.229023
6673.05    23.707315     2.438234
6673.66    16.019135     5.012728
6674.27    23.522057     1.641029
6674.87    30.209141     1.652254
6675.48    19.695063     4.576258
6676.09    12.329744     4.272246
6676.69    22.713003     1.806067
6677.30    27.069042     2.001457
6677.91    21.369822     1.697271
6678.52    18.778206     4.338762
6679.12    22.903126     3.732436
6679.73    26.785431     2.155164
6680.34    25.551546     4.185540
6680.94    21.212189     4.005686
6681.55    15.723402     4.674660
6682.16    15.164557     6.215049
6682.77    16.850443     7.944595
6683.37    18.976065     7.193498
6683.98    18.139179     4.850239
6684.59    12.039378     5.022192
6685.19    16.578098     3.248290
6685.80    20.874849     3.562985
6686.41    27.817785     3.938006
6687.02    29.573990     4.603602
6687.62    19.011803     6.013553
6688.23    13.943619     4.052869
6688.84    20.823732     1.848644
6689.44    13.659108     4.455950
6690.05    10.721630     3.108459
6690.66    17.146523     1.248310
6691.27    19.069426     2.952724
6691.87    16.980560     0.995905
6692.48    11.706064     1.807177
6693.09    10.778868     2.290067
6693.69    15.058455     5.543608
6694.30    19.509632     6.069232
6694.91    21.227720     2.646770
6695.51    20.947495     4.080439
6696.12    19.092602     5.893140
6696.73    19.469172     5.532518
6697.34    16.017860     3.865611
6697.94    14.415622     2.484114
6698.55    17.634579     1.923884
6699.16    15.554130     4.423523
6699.76     8.361805    10.808642
6700.37    11.333189     6.946036
6700.98    19.803143     3.054112
6701.59    21.375778     3.307547
6702.19    20.740635     4.352999
6702.80    22.658340     4.995892
6703.41    14.619078     4.929612
6704.01    10.828329     6.226417
6704.62    19.125732     3.521703
6705.23    20.115425     5.273135
6705.84    13.322177     7.595641
6706.44    14.792196     3.507141
6707.05    18.998352     2.995218
6707.66    15.523238     2.437173
6708.26    16.247690    -0.055727
6708.87    16.229136     2.572994
6709.48    15.024621     4.958826
6710.09    17.879303     2.659513
6710.69    19.947422     3.046642
6711.30    17.715431     3.971602
6711.91    23.666491     3.416267
6712.51    23.186497     2.229784
6713.12    27.537125     2.254932
6713.73    35.490318     3.257619
6714.34    27.876062     2.804154
6714.94    18.569839     1.816427
6715.55    14.350883     6.458250
6716.16    20.457760     4.584888
6716.76    22.578028     3.393668
6717.37    23.907200     2.877855
6717.98    24.334826     1.691566
6718.59    11.990133     7.000295
6719.19    18.179932     2.346242
6719.80    15.420355     5.724847
6720.41    16.798838     4.755657
6721.01    19.955317     1.837070
6721.62    19.999083     2.773547
6722.23    23.886744     0.998169
6722.84    21.429708     2.863173
6723.44    33.430462     2.983492
6724.05    21.952358     3.823322
6724.66    13.303600     3.102090
6725.26    14.535207     2.096258
6725.87    13.757592     3.004044
6726.48    26.999466     2.000250
6727.09    16.629766     2.512525
6727.69    17.360769     5.818376
6728.30    21.538298     3.544881
6728.91    17.513840     3.235946
6729.51    15.452269     5.865863
6730.12    17.885092     2.825176
6730.73    14.911504     3.013586
6731.33    19.266560     1.955698
6731.94    11.638054     3.644020
6732.55    13.347587     2.410429
6733.16    23.124290     1.851130
6733.76    19.619741     5.331015
6734.37    13.930200     3.926533
6734.98    16.218769     2.130343
6735.58    21.703741     1.916783
6736.19    23.906170     2.231675
6736.80    20.819834     4.554374
6737.41    13.115415     5.691158
6738.01    10.940439     3.988466
6738.62    19.037727     5.010629
6739.23     9.671598     3.152883
6739.83    17.216564     4.379324
6740.44    19.477262     4.458081
6741.05    16.126966     1.802846
6741.66    17.482821     1.323626
6742.26    13.942556     3.046862
6742.87    16.796751     2.891313
6743.48    17.228924     5.685660
6744.08    16.248112     4.616605
6744.69    12.183093     5.000060
6745.30    15.416889     5.308192
6745.91    21.816755     2.758748
6746.51    17.015078     4.123000
6747.12    24.832222     5.160206
6747.73    30.397924     2.397488
6748.33    19.590862     3.270373
6748.94    12.565378     3.178224
6749.55    16.451956     2.331068
6750.16    16.357447     4.113145
6750.76    11.938191     2.961658
6751.37    13.361602     2.053953
6751.98    17.304832     1.951480
6752.58    12.921642     2.282750
6753.19    16.220879     4.331304
6753.80    19.376759     4.144290
6754.41    10.218244     2.199928
6755.01    12.010343     5.001785
6755.62    13.221442     2.377363
6756.23    21.525154     2.449151
6756.83    24.498983     3.377487
6757.44    18.655720     2.267387
6758.05    18.735266     2.614748
6758.66    22.393972     3.798859
6759.26    14.022827     1.008502
6759.87    17.289204     1.813153
6760.48    17.985243     1.917491
6761.08    20.466967     3.105901
6761.69    24.575785     4.148019
6762.30    26.721529     1.954293
6762.91    23.497128     0.087347
6763.51    12.048656     2.974630
6764.12    14.602943     4.247173
6764.73    21.168133     1.941227
6765.33    15.778446     4.957336
6765.94    12.184175     6.577063
6766.55    17.831610     2.945304
6767.15    21.387281     2.117364
6767.76    21.003099     3.000466
6768.37    15.685072     1.197765
6768.98    14.009468     1.541862
6769.58    13.232007     2.398957
6770.19    10.450697     1.061462
6770.80    11.240328     2.256022
6771.40    16.831783     6.322246
6772.01    19.010677     4.962900
6772.62    17.693161     3.158084
6773.23    11.756205     2.768356
6773.83    13.623568     3.858598
6774.44    16.270451     3.196291
6775.05     9.807730     1.784228
6775.65     8.648112     2.008016
6776.26    20.173706     2.023132
6776.87    14.861553     2.940867
6777.48    12.730765     2.919160
6778.08    18.597755     3.781442
6778.69    14.422917     3.440675
6779.30    11.156584     3.524639
6779.90    14.182184     6.928568
6780.51     8.001174     7.720230
6781.12    16.157871     2.179743
6781.73    22.092913     4.379614
6782.33    18.690786     3.974307
6782.94    16.692122     2.758736
6783.55    16.242252     2.803058
6784.15    11.334093     1.727030
6784.76    10.836675     2.248107
6785.37    20.834917     4.033269
6785.98    17.767624     1.811023
6786.58    17.427940     6.129647
6787.19    12.924543     3.926828
6787.80    16.602196     0.960286
6788.40    20.014248     3.535733
6789.01    10.711003     2.686347
6789.62    17.072617     0.987508
6790.23    17.079592     0.992399
6790.83    19.020260     0.823014
6791.44    20.969353     2.262046
6792.05    17.061077     3.030715
6792.65    13.611805     0.955231
6793.26    18.976036     0.460854
6793.87    22.533091     4.239251
6794.48    11.380757     5.088871
6795.08    16.161196     3.290881
6795.69    19.540770     3.018852
6796.30    18.081198     2.319921
6796.90    12.794278     2.536145
6797.51    13.377632     2.393058
6798.12    22.259512     1.332829
6798.73    15.059314     4.996218
6799.33     9.263048     1.648532
6799.94    10.479037    -0.186501
6800.55    16.039314     0.926780
6801.15    18.198833     3.590635
6801.76    13.822294     5.150225
6802.37    11.377167     3.438357
6802.97    17.516726     2.047923
6803.58    20.348545     3.929837
6804.19    11.542815     3.200513
6804.80    10.273289     3.483973
6805.40    10.041466     4.474516
6806.01    12.442893     2.789449
6806.62    11.445376     2.876333
6807.22     5.888010     4.595561
6807.83    19.082886    -0.013056
6808.44    18.188744     3.387701
6809.05    21.191601     5.307697
6809.65    20.012518     3.338108
6810.26    17.074059     0.493755
6810.87    19.268141     0.719376
6811.47    17.142418     3.644186
6812.08     9.843573     3.791885
6812.69    15.667164     1.065496
6813.30    20.315401     1.585264
6813.90    15.237150     3.710635
6814.51    15.766805     3.468713
6815.12    14.983214     3.198941
6815.72     7.657866     4.383891
6816.33    11.702944     3.443871
6816.94    22.948793     0.979443
6817.55    11.713696     2.838287
6818.15    12.086652     4.289529
6818.76    12.764684     8.554198
6819.37    11.358799     5.920246
6819.97     7.223473     2.744764
6820.58     4.183728     4.018102
6821.19     8.909335     2.913905
6821.80    14.212402     2.982068
6822.40    19.190449     2.003578
6823.01    12.875774     2.925831
6823.62    15.831859     2.084039
6824.22    16.699610     3.515989
6824.83    13.461214     5.032717
6825.44    15.929111     3.709249
6826.05    18.181494     4.220285
6826.65    15.943480     4.988891
6827.26     7.811527     3.644788
6827.87     6.610756    10.123824
6828.47    13.820270    12.923331
6829.08    22.535515     6.642699
6829.69    13.743925     5.221565
6830.30     1.785405    11.335476
6830.90    12.376116    10.271201
6831.51    17.978464     4.014236
6832.12    21.530436     5.297414
6832.72    14.022638     9.724932
6833.33    22.977301     8.119663
6833.94    18.867451    11.234066
6834.55    10.115553    10.141201
6835.15    14.667702     7.914394
6835.76    11.422630    15.630321
6836.37    19.956650     4.061103
6836.97    18.660255     4.711494
6837.58    15.951646     3.242294
6838.19    17.096725     5.654043
6838.79    14.862135     5.845764
6839.40    13.536199     4.094427
6840.01    16.488302     4.656450
6840.62    14.349792     3.065920
6841.22    10.995654     4.998427
6841.83    15.737003     3.999671
6842.44    13.317027     5.689100
6843.04    16.295301     4.825491
6843.65    13.143864     4.001082
6844.26    17.635576     3.161330
6844.87    21.948471     2.318316
6845.47     6.475641     4.006799
6846.08    16.091490     3.004394
6846.69    15.588629     4.862262
6847.29    12.805975     3.813456
6847.90    14.677113     1.040460
6848.51     9.213961     2.939082
6849.12     7.891269     5.481312
6849.72    17.917212     2.676768
6850.33    23.651453     0.029951
6850.94    22.789555     2.026940
6851.54    15.269890     1.814710
6852.15    17.269594     6.007623
6852.76    10.348602     7.372613
6853.37    10.652038     2.458968
6853.97    13.742295     2.687249
6854.58    10.407148     6.270511
6855.19    14.543359     3.334199
6855.79    18.734953     2.054762
6856.40     8.575682     3.927109
6857.01     8.926723     3.303814
6857.62    20.861607     2.579325
6858.22    19.755821     4.615252
6858.83    15.080787     3.592623
6859.44    13.418241     2.508579
6860.04    10.067910     5.434238
6860.65    13.185475     4.828407
6861.26    12.071784     5.798187
6861.87     8.358152    15.014649
6862.47    -0.030484    14.296216
6863.08    13.740650     6.639598
6863.69    17.028910     6.542866
6864.29    11.536394    14.722508
6864.90    15.908481    15.167445
6865.51     8.782769     7.812041
6866.12     6.070722    10.991327
6866.72    12.932482     5.504477
6867.33     7.341269     5.146921
6867.94    14.218311     1.544028
6868.54    13.476663     0.486894
6869.15    12.259996     2.676200
6869.76    18.670982     3.309679
6870.36    12.021025     4.001609
6870.97     6.064293     2.875641
6871.58    12.600706     1.087118
6872.19    13.924526     0.726735
6872.79     8.116804     2.769323
6873.40    12.891463     1.733128
6874.01     7.959658     1.691188
6874.61     4.528167     3.234534
6875.22    15.275137     3.074075
6875.83    11.291919     4.173832
6876.44     9.000000     4.000000
6877.04    11.001427     0.947963
6877.65     9.443314     4.461053
6878.26    15.219650     2.816754
6878.86    10.408112     4.094848
6879.47     8.006845     5.187988
6880.08    14.920785     3.041184
6880.69    14.266396     3.667711
6881.29    14.640185     2.164819
6881.90     6.267405     6.891634
6882.51     9.382081     3.919236
6883.11    16.868870     1.127804
6883.72    16.821861     1.326461
6884.33     9.949869     3.151332
6884.94     9.697733     3.880144
6885.54    12.260657     2.768909
6886.15     6.642446     3.194498
6886.76     8.011889     3.984240
6887.36     8.478982     2.021506
6887.97    14.566021     4.258002
6888.58     4.375805     5.635057
6889.19     9.084335     3.200952
6889.79    12.449730     5.056333
6890.40     3.849179     5.744550
6891.01     9.794456     2.145834
6891.61    15.198021     6.238021
6892.22    13.151002     5.085690
6892.83     8.490380     3.119924
6893.44     7.625826     3.494831
6894.04     9.413995     5.189529
6894.65    13.824508     3.140166
6895.26    10.587736     3.047076
6895.86     7.027396     4.632186
6896.47    14.955458     1.730680
6897.08    14.914676     3.152606
6897.69    13.207284     5.027578
6898.29     9.039830     3.729169
6898.90     4.883035     7.550203
6899.51     8.260478     4.462326
6900.11     8.851442     2.403567
6900.72     4.927073     3.786937
6901.33     9.498504     3.599497
6901.94    18.855362     5.931684
6902.54    17.885881     2.950528
6903.15    12.303028     2.895216
6903.76    12.668676     3.258211
6904.36    12.528898     1.416934
6904.97    11.601534     1.571095
6905.58    13.043251     1.499797
6906.18    13.824984     1.561314
6906.79    13.046258     2.979311
6907.40    15.456128     1.996490
6908.01    18.004887     2.996197
6908.61    13.779667     2.946044
6909.22     9.328815     3.940232
6909.83    10.430115     2.854805
6910.43    13.882745     1.305264
6911.04     6.260979     3.908958
6911.65     8.010534     5.813253
6912.26    20.790052     3.786795
6912.86     8.158966     3.965137
6913.47     8.905914     3.935285
6914.08    10.636229     7.018960
6914.68    13.373693     3.638760
6915.29     8.433199     5.029359
6915.90    10.069619     4.304191
6916.51    15.014915     1.478809
6917.11    18.048367     2.055831
6917.72    19.673729     2.169656
6918.33    10.883199     2.976712
6918.93    16.804100     2.006168
6919.54    15.419135     3.508488
6920.15    14.503023     5.983717
6920.76     6.053464     4.121736
6921.36    16.074249     3.024020
6921.97    20.246340     4.860462
6922.58     5.446821     8.635581
6923.18    12.556116    10.420503
6923.79    19.595509     4.791342
6924.40     5.471871     5.844219
6925.01     8.813934     7.733771
6925.61     9.922880     8.941350
6926.22     8.748391     8.155564
6926.83    16.742161     5.165800
6927.43    20.265390     4.114232
6928.04    14.908826     2.984436
6928.65    12.098147    -0.062569
6929.26     9.213570     2.093482
6929.86    15.965180     2.047095
6930.47     9.715208     1.875245
6931.08    13.257456     2.834248
6931.68    13.718538     2.570796
6932.29    11.815094     1.369107
6932.90     8.208220     0.972728
6933.51     8.478621     0.900550
6934.11    18.600760     1.245810
6934.72    12.563660     3.048301
6935.33     6.208359     3.007301
6935.93     6.502614     3.124657
6936.54     8.701818     1.608476
6937.15     8.816192     0.720812
6937.76    10.232080     5.315372
6938.36    10.410913     7.668594
6938.97    17.431179     4.183309
6939.58    28.844191     2.756102
6940.18    16.485401     2.040628
6940.79    12.905342     3.912326
6941.40    13.625467     3.358410
6942.00     7.994407     1.947770
6942.61     9.553570     3.201281
6943.22     9.110089     4.015642
6943.83    11.127715     1.887586
6944.43    18.779825     1.527860
6945.04    13.833134     4.243489
6945.65    10.048375     3.981456
6946.25    13.871170     4.002038
6946.86    11.072460     3.898462
6947.47     8.304205     4.866611
6948.08    17.272688     4.775676
6948.68    12.544372    10.014033
6949.29     2.832211    11.605571
6949.90    12.859001     4.239072
6950.50    16.669409     3.386289
6951.11     6.021871     6.002066
6951.72    17.326172     4.040312
6952.33    15.387447     5.244781
6952.93    11.891244     1.004117
6953.54    12.455977     2.023875
6954.15     9.934172     4.252247
6954.75     5.444927     2.162410
6955.36     9.968836     2.583676
6955.97    16.503155     3.807391
6956.58     7.856667     0.914020
6957.18    10.922726     0.914480
6957.79     7.799436     1.853258
6958.40    14.288939     2.555543
6959.00     7.641608     4.370470
6959.61     5.005965     4.793577
6960.22    13.445742     3.517858
6960.83     9.509345     2.854192
6961.43     5.982447     1.650193
6962.04    17.267656     0.008179
6962.65    15.368982     1.853335
6963.25    13.681367     2.227819
6963.86    15.551607     0.989110
6964.47    10.791145     2.248829
6965.08    11.176664     2.768592
6965.68    15.992863     1.769320
6966.29    14.328658     2.212874
6966.90    12.933695     3.179312
6967.50    12.978046     5.132379
6968.11    10.438727     7.991352
6968.72     5.677898     5.539041
6969.33    11.986129     4.822777
6969.93     7.743527     4.856194
6970.54     5.127482     5.864537
6971.15    13.045964     4.659674
6971.75    16.311333     1.781967
6972.36    12.966659     3.190752
6972.97     8.006311     2.957959
6973.58    11.063366     1.993360
6974.18     6.802285     2.891421
6974.79    13.976793     3.056485
6975.40     7.916968     7.976031
6976.00     7.984488     5.686639
6976.61    13.347820     2.821436
6977.22    13.367433     5.644780
6977.82    23.156408     1.786821
6978.43    13.645980     4.090262
6979.04     6.498827     5.071176
6979.65     2.666926     3.950234
6980.25     7.743816     5.903065
6980.86     7.202106     8.060466
6981.47    11.515682     3.688817
6982.07    14.599407     1.856873
6982.68     8.442505     5.149364
6983.29    11.395033     2.694001
6983.90    10.935863     1.984135
6984.50     8.865255     1.055587
6985.11    12.594205     1.018032
6985.72    10.506349     0.748200
6986.32     8.299701     2.389975
6986.93    10.019692     2.364999
6987.54     8.701114     3.116378
6988.15     7.758643     4.488801
6988.75    12.262245     0.749835
6989.36     8.919161     2.026017
6989.97     4.558344     3.074645
6990.57    14.285468     1.397952
6991.18    14.226913     0.754489
6991.79    15.188544     1.587164
6992.40    18.938236     2.206635
6993.00    14.452250     1.599558
6993.61     7.814297     1.091983
6994.22     7.253112     2.084146
6994.82     9.992729     2.003023
6995.43     9.227202     1.847379
6996.04     8.062569     3.752802
6996.65     8.715268     2.982735
6997.25    13.220542     0.878148
6997.86    14.291706     2.272384
6998.47     8.992179     4.129813
6999.07     9.308835     2.621224
6999.68    13.632684     2.055405
7000.29     6.941793     2.995130
7000.90    16.518095     2.158942
7001.50     9.023138     1.825055
7002.11    11.412943     2.710153
7002.72    14.797779     2.993553
7003.32     7.475091     3.273268
7003.93     5.927747     2.117618
7004.54    13.692526     0.009466
7005.15    16.706001     2.138758
7005.75     8.347734     2.979338
7006.36     8.262023     3.120594
7006.97    11.664515     2.073333
7007.57    10.975181     2.814399
7008.18     9.924979     1.948862
7008.79    17.645798     1.523744
7009.40    15.703296     5.148144
7010.00     3.792918     6.917795
7010.61    19.177816     4.953435
7011.22    10.713476     4.187725
7011.82    12.194733     1.282005
7012.43    11.122032     2.349794
7013.04    10.724632     2.605868
7013.64    12.335257     2.033762
7014.25    11.976690     1.345116
7014.86    13.712222     0.014929
7015.47    14.716067     1.048849
7016.07    11.010120     0.991264
7016.68    13.596046     2.091300
7017.29    14.243424     0.072639
7017.89    13.010666     2.556185
7018.50     5.953141     4.046280
7019.11    10.369591     2.292817
7019.72    16.977068     2.185572
7020.32     6.677868     3.160910
7020.93     7.172351     2.908960
7021.54     9.782434     1.079278
7022.14    12.884584     0.918459
7022.75    11.714161     1.089334
7023.36    15.598216     0.767342
7023.97    14.322120     1.959885
7024.57     6.452761     3.109463
7025.18    11.298297     1.267088
7025.79    22.275736     0.227641
7026.39    15.987228     4.008379
7027.00    15.875707     5.147208
7027.61    14.210155     3.305097
7028.22     9.298196     3.479471
7028.82     7.968844     4.308995
7029.43     9.921900     3.378056
7030.04    11.419747     3.428261
7030.64    12.022635     3.533456
7031.25    10.844266     1.049930
7031.86     8.919907     4.792163
7032.47    14.067790     4.538239
7033.07    22.774395     2.211282
7033.68    16.953247     2.765871
7034.29    14.106908     1.964795
7034.89    16.184992     1.622591
7035.50    13.236873     2.615008
7036.11    14.554067    -0.077706
7036.72     7.090283     1.937949
7037.32     9.984891     3.107275
7037.93    14.277895     1.504998
7038.54    10.482515     0.682248
7039.14    10.577593     1.695067
7039.75    15.945829     1.606415
7040.36    16.580685     1.227526
7040.97    12.079506     1.850188
7041.57     6.968685    -0.008196
7042.18     7.745454     1.621308
7042.79     9.902058     4.053404
7043.39    15.205327     1.932549
7044.00    13.316205     1.359486
7044.61    12.021410     1.656686
7045.22    15.160112     1.315662
7045.82    12.565787     3.234894
7046.43    10.918980     2.945158
7047.04     9.795009     1.167520
7047.64    14.691261     0.549289
7048.25    18.060091     3.576255
7048.86    16.561132     2.106158
7049.46    10.862351     2.510690
7050.07    10.558522     4.659165
7050.68    14.764709     1.792259
7051.29     9.898833     3.063892
7051.89    11.922143     3.042438
7052.50    10.146273     2.374082
7053.11    11.977755     0.563461
7053.71     8.356684     4.261597
7054.32     7.479385     4.471841
7054.93    13.615563     0.388286
7055.54    13.422693     1.025711
7056.14     9.888017     1.092338
7056.75     9.171357     3.841313
7057.36     6.119959     3.551275
7057.96     8.741146     1.106562
7058.57     9.402079     2.683969
7059.18     4.526125     3.707495
7059.79    10.707413     1.260395
7060.39    22.195007     1.349775
7061.00    14.820287     2.969287
7061.61    16.132685     0.994835
7062.21    10.056967     3.518086
7062.82    11.805091     2.937971
7063.43    18.903666     1.595468
7064.04    15.608658     2.572728
7064.64     9.413170     4.945447
7065.25    12.531051     5.561902
