#Wavelength     Flux    Sky Spectrum 
#[Angstrom]   [Counts]     [Counts]
4579.10    16.283117    12.459857
4579.71    10.917837    15.424512
4580.31    10.847752    13.642615
4580.92    19.512018    12.861074
4581.53    20.698555    15.765136
4582.14    18.897703    13.806117
4582.74    16.932150    12.209624
4583.35    14.645365    14.161437
4583.96    15.899793    11.133952
4584.56    21.166553     4.920736
4585.17    15.298281    10.839210
4585.78    16.030825    12.744730
4586.39    22.147572     9.078696
4586.99    16.800241    14.238526
4587.60    16.523191    15.711504
4588.21    18.991493     9.834774
4588.81    17.275293    12.457500
4589.42    16.879982    14.841370
4590.03    21.345795     7.483422
4590.64    19.707218     9.359783
4591.24    12.465886    15.113735
4591.85    17.073641    14.697206
4592.46    25.279648    10.106476
4593.06    24.421478     6.238412
4593.67    22.003628     4.916350
4594.28    25.214485    10.704990
4594.89    32.845242    12.516569
4595.49    34.152096     8.780335
4596.10    28.307896     7.324449
4596.71    26.113827     8.928349
4597.31    28.564594     6.633617
4597.92    21.097252    13.460921
4598.53    29.662949    15.599159
4599.14    34.543476    12.093154
4599.74    20.965574     9.171327
4600.35    23.739443     4.842402
4600.96    23.552343    12.795774
4601.56    22.878218    15.167334
4602.17    22.663527    11.248779
4602.78    23.814850     8.217847
4603.38    23.770300     8.134835
4603.99    12.071516    15.147632
4604.60    15.443358    14.903738
4605.21    20.291735    11.007642
4605.81    16.125069    12.294922
4606.42    17.168985    14.840111
4607.03    28.571301    11.136511
4607.63    26.411152    13.044426
4608.24    30.199017    14.707540
4608.85    25.125101    15.881323
4609.46     9.442848    16.829988
4610.06    11.277648    13.886428
4610.67    22.508198    11.057275
4611.28    24.197105    13.085644
4611.88    14.276081    17.838421
4612.49    11.328766    20.405146
4613.10    21.375463    17.025263
4613.71    25.946629    11.064278
4614.31    23.791653    14.867734
4614.92    16.797005    15.389888
4615.53    19.474016    13.724469
4616.13    19.060179    17.662962
4616.74     7.040870    19.673624
4617.35    22.175331     8.406214
4617.96    31.107441     6.698291
4618.56    20.596088    13.550324
4619.17    14.034240    17.924870
4619.78    21.164268    13.309712
4620.38    24.886923     5.976061
4620.99    29.865129    13.087548
4621.60    31.333960    10.362560
4622.21    13.180540    16.683058
4622.81     2.027920    24.435625
4623.42    19.792561    15.516491
4624.03    27.095530    16.984531
4624.63    22.221582    12.324532
4625.24    16.664419     7.149364
4625.85    13.928374    11.215570
4626.46    12.977697    16.062805
4627.06    15.153587    11.873892
4627.67    22.215408    11.543219
4628.28    30.386433    14.874445
4628.88    14.595245    16.697186
4629.49     5.885360    17.460178
4630.10    15.836326    17.805471
4630.71     9.778896    15.099725
4631.31    29.215704    13.442668
4631.92    23.484272    18.399324
4632.53     7.367208    21.992332
4633.13    11.620021    17.936792
4633.74    21.149828    12.779188
4634.35    15.318304    14.717655
4634.95    18.654032    15.941566
4635.56    24.771896    10.518356
4636.17    22.849125     8.272316
4636.78    18.486145    11.787120
4637.38    21.343697    11.877496
4637.99    25.902910     8.569784
4638.60    23.157654     6.053583
4639.20    22.213799    11.965302
4639.81    22.751614    16.510359
4640.42    22.169563    11.492870
4641.03    20.899199     8.036398
4641.63    12.346498    14.231447
4642.24    17.536015    13.731804
4642.85    14.136974    14.531059
4643.45    10.308612    15.043700
4644.06    20.444469    10.443521
4644.67    23.005981     9.987802
4645.28    22.738432    10.074334
4645.88    25.559456     9.760221
4646.49    31.222736    10.944276
4647.10    29.821011    12.140614
4647.70    18.395687    13.472101
4648.31    13.632011    17.825094
4648.92    25.815548    16.686808
4649.53    30.825365     9.140003
4650.13    23.430195     8.465107
4650.74    23.121717    14.494977
4651.35    29.746805    14.682824
4651.95    19.681347    10.302879
4652.56    21.189224     9.744038
4653.17    24.543623    10.237147
4653.78    22.703217    12.931354
4654.38    14.920591    20.500950
4654.99     8.205935    23.557156
4655.60    18.783262    11.974081
4656.20    21.204039    12.466170
4656.81    17.994415    14.223808
4657.42    19.698681    12.166727
4658.03    23.450224    10.502527
4658.63    24.103628    10.111442
4659.24    27.664644    14.440919
4659.85    25.760836    16.253197
4660.45    12.591657    19.520861
4661.06    16.108479    17.673937
4661.67    23.942141    16.404352
4662.28     4.805924    25.028776
4662.88    14.149454    16.896475
4663.49    23.504381    10.758204
4664.10    14.594907    13.414814
4664.70    15.160845    16.839010
4665.31    26.325090    15.350588
4665.92    17.963037    13.002333
4666.53    18.613239    15.636950
4667.13    25.755829    15.653545
4667.74    21.004187    18.548374
4668.35    16.260868    18.456055
4668.95    21.716455    12.185334
4669.56    25.902275    11.007298
4670.17    35.314342    11.087891
4670.77    15.559261    18.177731
4671.38    10.754589    17.926723
4671.99    17.690956    15.537628
4672.60    13.510846    19.202660
4673.20    23.805738    16.103722
4673.81    26.967735    11.805858
4674.42    26.656673     9.354722
4675.02    16.366940    13.201493
4675.63    10.713078    20.397234
4676.24    20.545582    18.360783
4676.85    24.043470     8.034372
4677.45    18.959248    16.738224
4678.06    11.170725    19.981976
4678.67    16.023861    15.283911
4679.27    22.398331    14.675503
4679.88    20.157627    15.526687
4680.49    27.574305    10.122074
4681.10    36.368195    11.086189
4681.70    26.881506    14.737616
4682.31    21.695534    17.038418
4682.92    21.309967    16.266136
4683.52    20.436829    13.722238
4684.13    32.930565    13.920031
4684.74    21.972500    15.490012
4685.35    17.903189    10.682661
4685.95    21.936527    10.378424
4686.56    23.158325    15.426178
4687.17    17.062626    17.173616
4687.77     7.778136    17.086798
4688.38    24.150007    13.779479
4688.99    23.453939    12.131937
4689.60    21.495434    15.351883
4690.20    24.403978    16.291698
4690.81    21.216032    15.670640
4691.42    24.154539    21.056217
4692.02    14.579459    13.884748
4692.63    15.423202    17.418175
4693.24    18.321356    18.315235
4693.85    16.901394    12.936430
4694.45    18.170319    12.940771
4695.06    18.049763    11.997206
4695.67    18.913321    13.498199
4696.27    31.796749    15.216053
4696.88    26.468359    17.383585
4697.49    10.514998    19.625891
4698.10    14.620318    18.393036
4698.70    27.516090    13.165335
4699.31    35.949749    11.030825
4699.92    30.559935    11.986250
4700.52    21.303844    18.149120
4701.13    17.057106    17.617653
4701.74    20.278749     9.524609
4702.35    27.942516    11.957088
4702.95    23.881813    10.204954
4703.56    24.152859    12.815245
4704.17    23.781252    20.526299
4704.77    22.128651    22.015062
4705.38    21.167067    16.238647
4705.99    16.908924    14.056124
4706.59    25.421108    13.050363
4707.20    19.247559    20.532021
4707.81    18.574247    17.789263
4708.42    27.339479    11.528656
4709.02    23.016003    17.086758
4709.63    13.948548    20.013714
4710.24    26.028072    16.829782
4710.84    25.224323    14.329144
4711.45    20.608969    13.833546
4712.06    18.297342    14.249609
4712.67    18.357204    13.601438
4713.27    27.971422    11.981676
4713.88    21.547754    15.592762
4714.49    18.997334    14.889390
4715.09    16.720284    18.139181
4715.70    11.003445    20.454529
4716.31    12.255093    16.648689
4716.92    20.973526    17.002560
4717.52    21.969561    14.013569
4718.13    23.429163     9.379574
4718.74    19.498688    11.213661
4719.34    20.888988    14.575420
4719.95    28.174526    12.304482
4720.56    26.015066    10.000792
4721.17    34.184036    12.453281
4721.77    22.592194    13.992090
4722.38    19.917900    14.007666
4722.99    20.458158    16.632912
4723.59    17.900347    18.779907
4724.20    33.075081    13.928142
4724.81    28.550449    10.584232
4725.42    31.879333    16.577805
4726.02    19.832275    19.784277
4726.63    10.550582    18.835754
4727.24    25.245274    17.189190
4727.84    29.861357    14.013666
4728.45    15.525926    17.654016
4729.06     8.912985    15.438979
4729.67    22.643988     9.352769
4730.27    26.493128    11.739642
4730.88    19.620184    18.786644
4731.49    26.940125    16.893019
4732.09    17.241154    13.493324
4732.70    27.860220    11.572404
4733.31    28.911812    14.570009
4733.92    16.110096    17.803152
4734.52    11.853844    18.125385
4735.13    14.092647    17.924030
4735.74    16.419538    15.120117
4736.34    20.593031    16.955454
4736.95    19.185770    18.511292
4737.56    25.008465    17.426865
4738.17    32.653183    17.180311
4738.77    22.613998    17.981846
4739.38    19.825003    17.601374
4739.99    21.455948    22.306492
4740.59    22.553865    19.800985
4741.20    23.587561    11.738298
4741.81    23.709204    10.824474
4742.41    24.234951    15.023561
4743.02    29.308075    12.838396
4743.63    19.485058    18.293045
4744.24    10.916529    19.063684
4744.84    15.429336    16.527296
4745.45    21.584696    16.947874
4746.06    18.766844    15.960618
4746.66    17.412247    15.955406
4747.27    25.655619    16.100386
4747.88    32.565853    15.691916
4748.49    26.135523    17.043165
4749.09    20.708588    19.372463
4749.70    26.979078    18.899437
4750.31    17.638222    18.495775
4750.91    11.089428    24.360405
4751.52    22.993935    20.954943
4752.13    30.413490    16.271315
4752.74    23.200630    16.549477
4753.34    23.463394    12.811947
4753.95    32.612030    12.643974
4754.56    28.085732    15.466827
4755.16    26.517447    10.358171
4755.77    30.599003     7.147629
4756.38    32.357685    12.499672
4756.99    30.625004    14.928251
4757.59    22.796040    12.127069
4758.20    21.341726    14.049712
4758.81    27.993513    15.188117
4759.41    28.167183    12.409266
4760.02    23.922346     9.450628
4760.63    28.295088    10.219320
4761.24    30.808853    13.889574
4761.84    31.947336    12.147271
4762.45    31.288969    14.615754
4763.06    28.413643    14.418528
4763.66    23.526093    12.896793
4764.27    22.351519    18.021109
4764.88    29.908304    13.452694
4765.49    23.834480    13.822095
4766.09    29.115601    12.026206
4766.70    26.883720    15.429283
4767.31    21.017286    19.052849
4767.91    32.850437    13.070951
4768.52    15.249100    21.191589
4769.13    12.721966    19.661125
4769.74    31.883703    12.533311
4770.34    31.381050    11.791676
4770.95    18.791527    14.086295
4771.56    30.593819    10.701669
4772.16    31.302254     8.224405
4772.77    18.689880    19.017172
4773.38    13.035141    21.070948
4773.99    14.764422    17.051771
4774.59    18.461205    16.614023
4775.20    22.993628    13.892805
4775.81    19.304140    13.012542
4776.41    21.380352    13.349589
4777.02    24.809193    16.145494
4777.63    27.348240    18.769123
4778.23    30.751234    17.142027
4778.84    34.176609    12.876340
4779.45    37.344231    11.234137
4780.06    30.425430     9.712553
4780.66    23.052982    12.408906
4781.27    19.880135    13.276885
4781.88    22.635269     9.251282
4782.48    30.063084    11.210196
4783.09    26.736233    20.410530
4783.70    25.439995    17.059187
4784.31    26.769268    15.349216
4784.91    26.876139    14.311838
4785.52    29.031891    11.337625
4786.13    32.987774    16.026670
4786.73    26.601564    15.539392
4787.34    20.455875    21.578365
4787.95    21.878138    19.887924
4788.56    29.369987    13.431645
4789.16    32.480480    14.484739
4789.77    26.021423    16.990625
4790.38    25.699135    16.863770
4790.98    26.449425    10.983168
4791.59    28.656111    12.869258
4792.20    27.428831    15.308589
4792.81    27.263748    12.116518
4793.41    36.936035    16.894733
4794.02    28.659031    18.155428
4794.63    14.663538    17.450834
4795.23    21.383270    16.127367
4795.84    34.731289    14.468157
4796.45    32.104702    15.555525
4797.06    25.349514    18.128736
4797.66    20.439339    11.783056
4798.27    26.572390    14.367554
4798.88    20.420145    17.146109
4799.48    18.818687    14.113529
4800.09    35.946774    12.910923
4800.70    29.690926    12.101892
4801.31    24.120050    11.730608
4801.91    19.584370    19.221298
4802.52    21.312218    17.432457
4803.13    23.131548    14.632102
4803.73    19.075699    21.841156
4804.34    26.832443    11.805791
4804.95    35.323257    11.644908
4805.56    27.907232    14.029200
4806.16    23.144884    11.127025
4806.77    25.703232    11.009013
4807.38    23.107750    14.957579
4807.98    29.208935    11.084289
4808.59    31.075232    15.355829
4809.20    26.829670    16.561819
4809.81    25.265276    14.697754
4810.41    28.989702    14.831446
4811.02    30.972332    14.021020
4811.63    27.083527    15.191535
4812.23    22.023773    11.894482
4812.84    29.324888    12.215335
4813.45    27.398016    14.163598
4814.05    15.632116    14.426641
4814.66    22.975655    17.985353
4815.27    20.606789    18.343807
4815.88    21.102440    16.711973
4816.48    17.792215    18.934307
4817.09    20.993721    16.274874
4817.70    35.490551     8.616976
4818.30    35.272354    12.731246
4818.91    28.577078    15.937040
4819.52    24.253078    14.905031
4820.13    25.257772    13.513323
4820.73    33.587608    14.683309
4821.34    37.022339    17.240564
4821.95    20.985292    18.053623
4822.55    22.081915    16.610359
4823.16    30.548435    14.777757
4823.77    33.658886    13.431364
4824.38    28.787189    14.953638
4824.98    24.233532    18.005606
4825.59    30.559771    16.701122
4826.20    18.396740    22.015215
4826.80    32.868618    19.862654
4827.41    42.840046    15.041456
4828.02    29.008207    14.503740
4828.63    38.115749    10.978566
4829.23    41.686729    10.955196
4829.84    27.689199    10.547284
4830.45    27.585833    13.509114
4831.05    32.153877    18.565691
4831.66    30.198305    16.954632
4832.27    41.010986     9.179809
4832.88    27.852325    11.328163
4833.48    21.494154    17.151892
4834.09    27.378611    16.773651
4834.70    25.576931    19.621464
4835.30    17.952209    26.891430
4835.91    25.151510    18.649857
4836.52    28.445904    19.076988
4837.13    26.423191    18.913874
4837.73    26.894789    13.136066
4838.34    25.645800    13.508101
4838.95    21.095961    21.089308
4839.55    29.796574    18.265667
4840.16    29.917627    20.873461
4840.77    22.341093    20.371952
4841.38    25.686810    15.334386
4841.98    27.932756    14.056098
4842.59     7.447470    16.831026
4843.20     8.562425    21.855095
4843.80    23.468491    18.358873
4844.41    24.929216    15.593640
4845.02    24.067722    13.166929
4845.63    33.265202     7.987334
4846.23    26.905769    14.103424
4846.84    22.388958    20.423098
4847.45    26.813440    19.609610
4848.05    28.208941    17.581127
4848.66    24.508245    16.273199
4849.27    22.866749    15.121263
4849.87    17.215485    22.346945
4850.48    21.343527    20.089020
4851.09    25.487829    17.288654
4851.70    26.947107    15.692019
4852.30    27.514711    14.632801
4852.91    23.936449    20.884893
4853.52    27.853992    18.371252
4854.12    17.857178    21.310528
4854.73    24.955738    24.498093
4855.34    43.432297    20.411768
4855.95    33.680267    17.004915
4856.55    17.385967    19.714518
4857.16    15.775361    18.783030
4857.77    27.156231    12.845426
4858.37    34.211395     9.519379
4858.98    32.893887    11.496327
4859.59    33.024403    12.032362
4860.20    29.067389     8.946471
4860.80    25.644180    12.797449
4861.41    24.784445    15.179480
4862.02    25.132774    14.005075
4862.62    23.585281    17.647993
4863.23    21.451836    22.893534
4863.84    31.220037    19.246691
4864.45    28.924496    13.926338
4865.05    23.135338    19.016251
4865.66    25.186728    23.006815
4866.27    25.013498    13.971804
4866.87    28.472054    18.026054
4867.48    28.429398    18.231628
4868.09    25.213116    16.684753
4868.70    30.805740    14.559206
4869.30    37.396797    13.699311
4869.91    24.675009    23.407373
4870.52    27.502542    22.760401
4871.12    26.496841    18.085514
4871.73    21.968735    17.008886
4872.34    21.643299    18.325739
4872.95    21.047842    20.035755
4873.55    28.884630    21.563868
4874.16    37.024200    15.847674
4874.77    32.214928    15.398671
4875.37    24.939476    20.133442
4875.98    24.631130    22.451361
4876.59    18.524750    25.999634
4877.20    16.143970    22.422377
4877.80    16.227491    19.889849
4878.41    26.924372    17.145319
4879.02    35.464279    15.470595
4879.62    28.004787    17.991407
4880.23    38.017673    11.639555
4880.84    32.245728    14.543303
4881.45    32.459393    17.039518
4882.05    34.817883    16.579319
4882.66    24.857338    17.680544
4883.27    32.340118    12.953463
4883.87    30.345695    18.606297
4884.48    24.948406    17.354691
4885.09    18.660341    16.565639
4885.69    15.700562    20.906498
4886.30    23.853086    16.076550
4886.91    25.112804    16.679310
4887.52    26.103781    15.842100
4888.12    27.271097    11.926048
4888.73    26.925488    13.839337
4889.34    27.014021    21.233192
4889.94    28.372673    19.537310
4890.55    34.647293    17.460909
4891.16    42.716278    15.978059
4891.77    39.493679    14.669544
4892.37    32.191315    15.239518
4892.98    35.597191    18.608784
4893.59    16.690535    23.470388
4894.19    19.124527    16.657404
4894.80    38.137691    11.429360
4895.41    47.211742    14.500432
4896.02    46.953190    15.015230
4896.62    41.492264    16.864447
4897.23    34.853447    15.837419
4897.84    32.839664    14.655597
4898.44    40.808910    13.103844
4899.05    45.162552    12.308504
4899.66    26.865412    17.704752
4900.27    24.424240    15.749941
4900.87    30.538216    16.670517
4901.48    31.852293    16.794575
4902.09    29.588905    14.349873
4902.69    30.610195    19.810074
4903.30    39.249111    18.789637
4903.91    34.751114    17.204311
4904.52    29.154160    13.467228
4905.12    32.954693    11.769619
4905.73    33.976421    19.080803
4906.34    31.126347    21.393438
4906.94    33.643799    18.264906
4907.55    38.118862    16.829905
4908.16    38.585464    16.559181
4908.77    30.884335    16.224655
4909.37    18.168671    20.702545
4909.98    27.761570    19.448189
4910.59    31.572840    20.732151
4911.19    32.528351    20.780951
4911.80    41.563450    15.517536
4912.41    40.018974    15.012607
4913.02    43.250027    13.716154
4913.62    41.381111    11.953034
4914.23    27.859480    15.682265
4914.84    17.484587    20.054344
4915.44    22.836533    17.042080
4916.05    24.665100    17.996267
4916.66    21.467100    15.597486
4917.27    26.184357    14.015218
4917.87    35.734177    14.950434
4918.48    36.969143    14.001618
4919.09    36.479416    14.406092
4919.69    40.679726    10.342302
4920.30    37.484173     9.941251
4920.91    35.254601    12.071583
4921.51    43.373222    12.252720
4922.12    39.110844    17.505611
4922.73    23.306114    17.720961
4923.34    22.984774    21.034130
4923.94    27.814987    23.871824
4924.55    28.149101    19.370741
4925.16    40.739708    16.137106
4925.76    32.187710    16.772638
4926.37    35.848206    20.884295
4926.98    40.939381    18.292133
4927.59    33.640091    14.695114
4928.19    36.095032    23.704353
4928.80    29.480679    20.735233
4929.41    29.535652    18.455967
4930.01    26.633129    24.213497
4930.62    24.887686    22.806835
4931.23    39.793808     9.161952
4931.84    36.588634    14.177358
4932.44    34.990078    21.787014
4933.05    32.169170    19.899363
4933.66    24.676308    17.288923
4934.26    28.090061    19.992741
4934.87    43.263794    15.011266
4935.48    41.063122    14.066586
4936.09    36.059361    15.319266
4936.69    34.548920    16.862185
4937.30    26.798014    18.939487
4937.91    25.168215    15.165036
4938.51    23.830069    18.597412
4939.12    29.770557    21.803886
4939.73    34.924068    20.721771
4940.34    28.578535    19.901184
4940.94    27.594437    18.120413
4941.55    40.063545    18.658434
4942.16    42.699028    18.888699
4942.76    32.780598    21.760551
4943.37    30.438450    23.487785
4943.98    40.542675    12.938255
4944.59    44.957874    14.271255
4945.19    41.261417    15.183894
4945.80    43.620907    12.922874
4946.41    48.509811    16.520807
4947.01    36.253838    20.719872
4947.62    35.336357    20.304550
4948.23    37.553455    16.490387
4948.84    34.667751    15.317867
4949.44    31.830704    18.357355
4950.05    31.209328    21.422819
4950.66    29.208008    25.778215
4951.26    34.847363    18.794718
4951.87    38.869740    15.217259
4952.48    37.398643    22.319551
4953.09    42.210304    18.531664
4953.69    34.355114    16.808790
4954.30    38.757599    16.994804
4954.91    47.007389    14.846337
4955.51    39.590199    17.257227
4956.12    36.564495    27.074005
4956.73    58.467377    16.437634
4957.33    55.450230    15.457842
4957.94    37.139297    19.715841
4958.55    33.616673    16.051781
4959.16    29.450724    21.401560
4959.76    28.015871    23.125145
4960.37    36.769272    18.556156
4960.98    37.220730    13.408913
4961.58    33.241402    12.029412
4962.19    48.777264    13.700227
4962.80    33.844650    16.276981
4963.41    25.695763    17.535421
4964.01    36.218605    16.239317
4964.62    42.118404    19.160757
4965.23    41.487492    28.952856
4965.83    49.316494    19.833530
4966.44    43.389103    16.424307
4967.05    35.735729    23.101711
4967.66    42.678383    23.647482
4968.26    43.466934    17.880188
4968.87    38.712955    13.869846
4969.48    35.858284    20.263336
4970.08    36.269043    22.603867
4970.69    35.792362    17.119413
4971.30    35.822353    25.002190
4971.91    49.076839    25.377111
4972.51    54.793678    19.602297
4973.12    42.479912    18.748802
4973.73    26.045677    23.269304
4974.33    23.380045    26.052544
4974.94    38.475159    32.515465
4975.55    47.979256    24.668789
4976.16    38.214577    15.940694
4976.76    28.169813    22.087990
4977.37    41.267815    18.261814
4977.98    39.352814    22.695204
4978.58    36.731537    27.092150
4979.19    41.879566    25.680912
4979.80    38.820225    27.089098
4980.41    32.340015    30.947985
4981.01    42.557980    27.583000
4981.62    44.476330    23.968676
4982.23    36.358006    22.085178
4982.83    38.999882    19.964912
4983.44    35.818542    27.598003
4984.05    41.309044    27.970240
4984.66    38.797398    28.706179
4985.26    28.007158    30.084005
4985.87    32.604630    21.307159
4986.48    40.113491    21.101324
4987.08    44.877934    28.045261
4987.69    43.391121    25.879148
4988.30    38.367111    18.899513
4988.91    38.594688    23.783722
4989.51    43.581490    21.152967
4990.12    36.370811    20.997219
4990.73    34.246361    23.310629
4991.33    43.228752    21.774498
4991.94    38.269356    20.218403
4992.55    42.712334    18.881792
4993.15    44.780159    20.323853
4993.76    47.521751    22.336353
4994.37    53.841572    20.764761
4994.98    43.117344    17.913603
4995.58    37.999344    20.988846
4996.19    44.363297    20.509726
4996.80    43.351158    18.168783
4997.40    28.842592    22.060652
4998.01    28.381294    23.919691
4998.62    35.892860    23.746300
4999.23    43.564972    21.874931
4999.83    52.298611    21.321522
5000.44    59.970562    23.042614
5001.05    52.121399    20.104111
5001.65    34.122078    23.291327
5002.26    23.853542    25.817936
5002.87    31.122257    22.693747
5003.48    43.618092    22.159691
5004.08    39.572529    19.849327
5004.69    45.393875    23.024067
5005.30    51.472855    25.947588
5005.90    47.326344    22.789360
5006.51    55.974136    23.381285
5007.12    45.723457    26.904163
5007.73    42.852470    20.734882
5008.33    43.537563    13.519626
5008.94    30.949785    19.118702
5009.55    39.448902    23.338423
5010.15    43.848076    18.725521
5010.76    45.935921    15.956793
5011.37    43.849522    21.516237
5011.98    31.195484    26.079977
5012.58    40.010624    19.645580
5013.19    51.133961    14.327403
5013.80    45.388683    16.755108
5014.40    35.963131    19.974600
5015.01    46.833443    17.186512
5015.62    58.085224    18.796234
5016.23    51.888142    20.260563
5016.83    45.076408    16.136005
5017.44    45.579796    15.343407
5018.05    27.531000    27.944790
5018.65    29.351042    22.268114
5019.26    43.081322    16.927744
5019.87    44.980373    21.392185
5020.48    37.212418    18.230978
5021.08    38.070568    15.751066
5021.69    39.075237    23.699104
5022.30    37.399647    32.217613
5022.90    39.797329    30.242952
5023.51    45.281567    24.256126
5024.12    36.334991    26.372379
5024.73    30.857550    24.131350
5025.33    41.848675    13.531384
5025.94    52.979057     8.082340
5026.55    41.794422    17.961267
5027.15    36.561474    27.571205
5027.76    33.340992    27.900061
5028.37    32.266254    21.540270
5028.97    44.300186    15.324915
5029.58    46.605820    13.269900
5030.19    36.687798    17.159054
5030.80    37.305779    20.567270
5031.40    44.434895    21.227526
5032.01    29.895920    22.818766
5032.62    38.371399    14.485191
5033.22    39.176365    21.574293
5033.83    29.487391    31.695538
5034.44    40.746857    17.234762
5035.05    53.619652     8.516755
5035.65    41.168339    15.007446
5036.26    34.364716    21.115431
5036.87    41.743332    21.397123
5037.47    32.413174    26.506613
5038.08    38.868484    27.102745
5038.69    40.159901    24.139633
5039.30    34.328545    21.154232
5039.90    44.571964    17.878918
5040.51    66.278435    13.483326
5041.12    58.433411    13.758142
5041.72    49.277554    12.689647
5042.33    49.421467    13.037561
5042.94    37.105492    20.780334
5043.55    48.533417    16.372576
5044.15    51.803673    13.719444
5044.76    51.192970    19.259369
5045.37    62.322575    22.945669
5045.97    57.379505    18.658150
5046.58    39.839668    19.232195
5047.19    28.468508    21.843655
5047.80    33.086533    22.015295
5048.40    44.458942    22.857307
5049.01    44.970295    25.247952
5049.62    39.572922    26.523127
5050.22    43.208092    25.333082
5050.83    54.462254    24.011642
5051.44    54.068176    23.894772
5052.05    48.313545    16.889542
5052.65    38.738186    17.598965
5053.26    37.900917    22.991848
5053.87    53.215340    19.016283
5054.47    56.052696    23.724577
5055.08    58.506340    22.793890
5055.69    58.419544    18.218849
5056.30    49.447857    20.220213
5056.90    46.729012    21.703566
5057.51    57.278778    15.508595
5058.12    64.855423    13.861067
5058.72    55.777737    18.662270
5059.33    38.868252    19.042181
5059.94    36.351570    19.292046
5060.54    36.204651    22.124952
5061.15    35.311653    26.416271
5061.76    41.515129    26.786421
5062.37    49.734512    20.557184
5062.97    38.132683    22.735062
5063.58    36.394569    21.732046
5064.19    46.066029    17.110683
5064.79    37.552505    23.338978
5065.40    40.094711    26.463106
5066.01    40.994385    28.254953
5066.62    35.481197    26.501909
5067.22    34.028694    20.959700
5067.83    35.755623    23.060320
5068.44    30.060783    24.680492
5069.04    38.386753    20.457985
5069.65    50.370312    17.175356
5070.26    35.468529    20.942432
5070.87    49.084942    16.920879
5071.47    57.622005    15.621437
5072.08    51.309376    18.167313
5072.69    51.137035    17.938339
5073.29    42.499817    22.325882
5073.90    49.236244    21.097698
5074.51    55.561443    19.278519
5075.12    38.797970    24.637894
5075.72    19.844049    29.923803
5076.33    37.700390    25.767942
5076.94    60.053265    16.109856
5077.54    53.135849    12.260497
5078.15    31.127285    17.601446
5078.76    32.226860    19.151031
5079.37    48.295155    19.158159
5079.97    52.498535    18.470112
5080.58    41.852257    18.066494
5081.19    44.474350    22.086063
5081.79    52.164890    18.163120
5082.40    34.653999    25.618221
5083.01    17.153511    37.741753
5083.62    47.291580    22.310825
5084.22    49.201637    17.499969
5084.83    36.614712    19.743061
5085.44    37.289272    20.358492
5086.04    42.972324    24.598051
5086.65    38.021423    31.851656
5087.26    35.457233    30.906706
5087.87    35.531445    21.352381
5088.47    39.611271    17.222893
5089.08    58.369682    27.647270
5089.69    57.602917    24.779274
5090.29    53.252060    19.059380
5090.90    54.106579    19.737946
5091.51    42.241928    15.418224
5092.12    41.426476    16.672209
5092.72    42.870834    25.269646
5093.33    44.224243    29.757751
5093.94    53.435272    23.378693
5094.54    58.376423    20.022266
5095.15    46.492031    20.535164
5095.76    50.669991    18.697954
5096.36    69.842194    14.980395
5096.97    44.511574    18.425734
5097.58    48.512531    23.540356
5098.19    61.528954    22.431492
5098.79    49.102657    20.363598
5099.40    39.143471    26.523327
5100.01    44.546185    24.585899
5100.61    48.399384    27.207197
5101.22    48.961987    31.591011
5101.83    54.138596    24.416964
5102.44    45.676178    24.995110
5103.04    40.619492    25.608675
5103.65    40.282833    25.642536
5104.26    41.923161    27.022108
5104.86    57.973778    20.639935
5105.47    47.715691    24.311319
5106.08    39.779942    29.458847
5106.69    53.401859    26.937710
5107.29    47.516792    28.692610
5107.90    47.308514    28.086334
5108.51    53.504559    26.726938
5109.11    50.456547    28.438360
5109.72    42.052139    28.207907
5110.33    59.751194    15.884995
5110.94    58.089340    17.295113
5111.54    42.003216    26.355328
5112.15    49.669502    19.487490
5112.76    47.104309    18.122772
5113.36    57.242378    20.130894
5113.97    60.635792    23.357388
5114.58    39.073311    26.010002
5115.19    39.376347    20.929359
5115.79    46.138027    21.691250
5116.40    53.279644    21.548563
5117.01    57.791855    14.687539
5117.61    47.628345    14.207682
5118.22    41.856888    18.408096
5118.83    50.606144    22.493032
5119.44    58.846874    21.360516
5120.04    46.875748    16.664694
5120.65    35.487656    24.127981
5121.26    48.430771    24.721432
5121.86    64.492493    18.994642
5122.47    50.979645    26.063072
5123.08    40.027779    30.009075
5123.69    44.202595    21.804008
5124.29    54.058525    14.796670
5124.90    57.921928    19.795755
5125.51    56.357319    19.583534
5126.11    43.613491    19.395983
5126.72    38.065708    19.684052
5127.33    46.001366    20.009535
5127.94    39.478340    27.360662
5128.54    47.012127    28.749702
5129.15    60.203293    26.695110
5129.76    59.775379    24.663431
5130.36    56.107822    16.892338
5130.97    57.689407    18.696787
5131.58    50.471004    22.764038
5132.18    33.538303    22.001175
5132.79    32.615898    23.004229
5133.40    56.430275    21.835657
5134.01    56.124100    23.873817
5134.61    37.367256    25.481972
5135.22    50.753189    19.366596
5135.83    55.724724    22.893171
5136.43    49.302639    30.563711
5137.04    47.746750    28.098158
5137.65    53.792423    16.583618
5138.26    49.636745    19.216965
5138.86    42.358467    23.116848
5139.47    41.565742    23.457109
5140.08    42.395531    27.668411
5140.68    34.161076    30.824913
5141.29    50.299637    26.079189
5141.90    62.571251    27.767792
5142.51    47.075760    38.024628
5143.11    59.326431    25.988253
5143.72    53.691822    22.494898
5144.33    43.034954    27.935600
5144.93    52.029385    28.017632
5145.54    46.383202    31.562742
5146.15    48.741119    29.603472
5146.76    59.637123    22.164948
5147.36    63.988178    16.897667
5147.97    58.318985    18.462008
5148.58    44.372673    25.409664
5149.18    37.246773    32.304192
5149.79    46.093857    31.461075
5150.40    57.967525    21.519402
5151.01    48.708656    20.612371
5151.61    42.363235    21.185764
5152.22    46.738464    20.484175
5152.83    39.772636    28.260622
5153.43    50.618816    25.350937
5154.04    58.605888    18.939198
5154.65    51.054394    22.068451
5155.26    46.134621    29.930714
5155.86    39.111938    23.496727
5156.47    41.130470    21.496210
5157.08    52.666031    28.609280
5157.68    56.752396    28.738716
5158.29    48.371124    33.173225
5158.90    52.020367    34.191479
5159.51    59.368244    29.168245
5160.11    49.853676    25.566130
5160.72    61.262207    22.114031
5161.33    48.674809    27.341539
5161.93    25.058847    32.794128
5162.54    44.623962    24.284550
5163.15    63.167969    17.966000
5163.76    58.091354    23.740608
5164.36    45.579514    28.488424
5164.97    49.750980    20.544601
5165.58    61.161652    20.958076
5166.18    59.775005    17.329477
5166.79    55.704159    11.926981
5167.40    62.145638    17.410494
5168.00    52.301834    20.673216
5168.61    52.575756    21.153700
5169.22    70.581726    19.110672
5169.83    75.625107    15.960495
5170.43    44.194504    19.889404
5171.04    42.666862    23.331442
5171.65    49.400703    24.436264
5172.25    23.416769    26.843868
5172.86    43.726036    27.479879
5173.47    50.608459    25.578121
5174.08    41.584969    20.259020
5174.68    53.619194    15.019348
5175.29    46.271976    19.438335
5175.90    37.702999    23.817339
5176.50    40.102543    23.890051
5177.11    42.233639    23.925869
5177.72    37.344547    24.840532
5178.33    49.129684    20.726475
5178.93    59.375252    18.656563
5179.54    43.260780    25.531698
5180.15    34.775364    27.854063
5180.75    37.614300    24.796305
5181.36    46.751343    21.446735
5181.97    55.703384    22.619251
5182.58    53.745716    28.633883
5183.18    47.383392    28.755011
5183.79    43.360600    24.109007
5184.40    46.953152    22.168165
5185.00    61.590660    20.098385
5185.61    54.570824    21.493258
5186.22    41.717300    26.102989
5186.83    50.644989    28.167194
5187.43    45.568943    24.150377
5188.04    48.686722    24.186832
5188.65    54.006149    28.934683
5189.25    42.579655    30.176506
5189.86    47.284843    26.518038
5190.47    55.188488    21.040012
5191.08    55.958485    20.859341
5191.68    57.412624    27.450788
5192.29    62.965191    28.698792
5192.90    55.008595    30.988176
5193.50    44.835438    32.503777
5194.11    54.493118    25.217533
5194.72    59.880829    18.981123
5195.33    53.157665    25.101400
5195.93    43.920197    31.825905
5196.54    41.428757    25.991653
5197.15    36.812397    34.262917
5197.75    32.437737    41.837372
5198.36    43.741768    35.308399
5198.97    66.148148    26.223898
5199.58    44.601128    31.619267
5200.18    36.721348    34.080338
5200.79    56.094734    28.667898
5201.40    48.212852    29.880083
5202.00    45.121166    27.496517
5202.61    61.572868    20.973618
5203.22    74.849533    20.746506
5203.82    59.702190    32.092686
5204.43    51.429321    34.320824
5205.04    52.435978    30.910675
5205.65    55.496986    29.922075
5206.25    61.437347    27.936394
5206.86    53.538273    23.587061
5207.47    50.626415    20.015892
5208.07    53.530720    21.200274
5208.68    34.747971    27.262838
5209.29    40.193539    31.095491
5209.90    61.348339    25.790110
5210.50    61.789444    19.016958
5211.11    39.319656    27.411419
5211.72    38.650043    30.307007
5212.32    41.791618    29.659927
5212.93    32.864376    31.105865
5213.54    52.986488    21.536930
5214.15    56.709312    20.046877
5214.75    44.953049    22.701044
5215.36    44.951256    18.170809
5215.97    43.041534    18.952953
5216.57    37.764965    20.706209
5217.18    38.378654    22.968473
5217.79    47.343063    28.477077
5218.40    49.192657    31.152607
5219.00    49.560452    26.507635
5219.61    41.652367    23.424791
5220.22    25.044050    30.163364
5220.82    39.261368    31.959621
5221.43    38.926235    30.169605
5222.04    19.615330    30.188992
5222.65    25.087114    31.262882
5223.25    32.369659    27.850080
5223.86    46.090401    25.862263
5224.47    59.181362    24.465710
5225.07    51.302635    18.097288
5225.68    54.586723    23.672522
5226.29    68.296448    27.649921
5226.90    68.250580    24.043659
5227.50    44.562912    29.700012
5228.11    36.981644    29.609743
5228.72    46.653015    22.320656
5229.32    53.991013    18.994041
5229.93    54.124004    25.770250
5230.54    50.559525    28.674078
5231.15    49.167900    24.485666
5231.75    53.573185    21.010342
5232.36    61.589550    23.635101
5232.97    64.910034    25.766199
5233.57    60.339951    27.966091
5234.18    51.903873    30.473410
5234.79    46.240883    21.934406
5235.40    44.632923    23.948502
5236.00    48.057854    32.189075
5236.61    53.191170    26.547892
5237.22    46.579895    29.300066
5237.82    40.713512    31.695648
5238.43    43.411644    26.392962
5239.04    45.947197    23.620039
5239.64    44.917686    27.402672
5240.25    46.517918    27.956879
5240.86    49.984993    25.077040
5241.47    47.429325    30.383715
5242.07    53.798889    27.385834
5242.68    54.752224    22.610846
5243.29    44.084415    24.977489
5243.89    50.505848    23.440781
5244.50    60.473248    24.027399
5245.11    68.309258    24.470470
5245.72    72.540253    21.897738
5246.32    59.981476    25.843559
5246.93    58.281055    21.914457
5247.54    62.025444    17.738295
5248.14    52.035355    29.279636
5248.75    62.761707    33.102821
5249.36    64.684151    25.410700
5249.97    51.240982    17.617649
5250.57    55.594906    19.210995
5251.18    63.348549    21.470743
5251.79    57.243328    24.777237
5252.39    45.929733    26.898201
5253.00    53.018143    20.037319
5253.61    52.606758    16.868277
5254.22    43.426537    18.502712
5254.82    43.587433    19.014746
5255.43    57.395714    18.944357
5256.04    55.227303    23.360329
5256.64    43.563179    27.125238
5257.25    50.690346    25.072170
5257.86    71.626396    27.248220
5258.47    70.692757    29.880871
5259.07    57.699886    28.574396
5259.68    66.139488    24.787182
5260.29    59.782589    22.394384
5260.89    43.837887    27.198288
5261.50    38.083797    31.831541
5262.11    46.614437    23.117130
5262.72    61.597729    21.493137
5263.32    64.218231    28.462067
5263.93    56.003998    31.088413
5264.54    63.988964    23.780577
5265.14    61.755829    23.780016
5265.75    51.581028    28.431997
5266.36    52.650288    26.292763
5266.97    54.278595    24.615400
5267.57    53.164692    19.749268
5268.18    53.418262    17.602957
5268.79    58.730171    25.270035
5269.39    63.156033    22.864269
5270.00    58.565319    20.470009
5270.61    50.874462    26.337198
5271.22    55.994259    28.826168
5271.82    64.546532    23.761936
5272.43    58.253826    21.640989
5273.04    42.220612    25.963156
5273.64    48.295517    22.595736
5274.25    52.436188    20.933262
5274.86    50.079662    21.878160
5275.46    53.619965    20.088453
5276.07    53.608231    21.168058
5276.68    50.389145    22.062536
5277.29    53.099785    22.162167
5277.89    63.479797    23.983946
5278.50    58.399635    22.244272
5279.11    64.825615    21.314886
5279.71    81.973747    25.098026
5280.32    63.338211    28.460493
5280.93    61.376167    24.146290
5281.54    72.052101    19.708750
5282.14    62.416603    23.534401
5282.75    45.857147    27.753433
5283.36    39.979248    26.438635
5283.96    47.986393    24.035849
5284.57    60.068642    25.394688
5285.18    66.048973    19.895527
5285.79    59.424095    17.397665
5286.39    49.805817    22.260624
5287.00    54.974064    22.557053
5287.61    63.883621    15.492434
5288.21    67.238289    14.608926
5288.82    66.012444    23.725019
5289.43    66.737762    23.822968
5290.04    62.803509    23.745380
5290.64    62.252151    26.298927
5291.25    72.874550    24.742882
5291.86    73.130501    19.578186
5292.46    67.679474    21.522522
5293.07    58.682266    29.498428
5293.68    41.834099    31.104607
5294.29    40.936470    30.778337
5294.89    62.225811    26.914322
5295.50    77.264732    21.993895
5296.11    50.202019    26.590868
5296.71    46.864197    26.507170
5297.32    70.066505    22.750759
5297.93    73.376663    25.434113
5298.54    61.480972    27.581783
5299.14    72.165833    22.522442
5299.75    89.716652    19.490198
5300.36    66.944405    29.624783
5300.96    57.913498    27.233435
5301.57    60.835560    23.623608
5302.18    54.202690    28.982107
5302.79    49.842098    23.946274
5303.39    60.558586    22.821280
5304.00    73.467728    26.309307
5304.61    72.372147    24.432768
5305.21    71.073959    22.834827
5305.82    61.643089    26.652636
5306.43    45.876953    33.522434
5307.04    40.709255    37.185196
5307.64    43.676548    40.021282
5308.25    48.443008    38.653076
5308.86    50.957432    33.139259
5309.46    52.832954    32.098305
5310.07    64.216179    30.814016
5310.68    76.332779    27.235189
5311.28    74.890762    24.290836
5311.89    68.449326    23.862867
5312.50    51.738831    26.577438
5313.11    39.184921    29.005117
5313.71    54.734203    26.328028
5314.32    59.110512    22.719353
5314.93    50.646858    26.448921
5315.53    45.362694    34.820366
5316.14    41.138336    31.025778
5316.75    50.302452    26.291481
5317.36    57.145885    27.392096
5317.96    44.120529    29.701807
5318.57    50.615803    30.023001
5319.18    64.008202    27.829763
5319.78    68.129791    23.855562
5320.39    72.201424    19.728518
5321.00    67.638985    19.254259
5321.61    59.338882    21.731144
5322.21    60.118469    23.865128
5322.82    69.945412    24.232517
5323.43    62.448692    23.713303
5324.03    48.876884    22.858082
5324.64    61.989788    20.878712
5325.25    70.556885    17.595465
5325.86    58.158291    24.645340
5326.46    44.904610    36.001854
5327.07    63.658173    24.845760
5327.68    67.875443    19.301931
5328.28    58.562317    24.965473
5328.89    65.747643    26.124134
5329.50    68.492126    24.805128
5330.11    68.456436    20.819830
5330.71    72.310562    16.919048
5331.32    76.746262    18.713268
5331.93    74.335922    22.595285
5332.53    64.801552    23.903271
5333.14    59.487514    22.936348
5333.75    72.484581    25.263174
5334.36    74.430679    25.272907
5334.96    58.880730    24.195518
5335.57    49.885231    27.556602
5336.18    56.830860    26.958775
5336.78    75.429085    26.547409
5337.39    84.177132    29.948017
5338.00    61.855492    31.349600
5338.61    53.214447    33.738686
5339.21    62.397102    34.656242
5339.82    64.569046    29.995138
5340.43    69.207710    25.297459
5341.03    72.822571    23.866936
5341.64    71.933678    25.066069
5342.25    71.046814    25.098581
5342.86    70.652023    20.419697
5343.46    62.179108    22.229578
5344.07    47.689709    33.411861
5344.68    51.437363    31.198786
5345.28    61.036617    29.854202
5345.89    64.051094    29.065277
5346.50    61.630032    16.764183
5347.10    54.717003    24.419353
5347.71    52.627693    33.046852
5348.32    58.679321    26.103760
5348.93    60.259850    31.954720
5349.53    49.500656    34.500851
5350.14    45.463650    26.502754
5350.75    64.640152    21.344584
5351.35    68.918900    29.766628
5351.96    56.480537    37.210045
5352.57    46.016479    33.028793
5353.18    50.930061    26.841864
5353.78    68.649971    23.411535
5354.39    75.989540    24.734791
5355.00    61.118866    30.014883
5355.60    57.632133    34.275379
5356.21    63.479305    31.904419
5356.82    64.880180    26.941027
5357.43    58.546829    30.035110
5358.03    53.190250    34.619030
5358.64    59.079731    30.682030
5359.25    74.445534    19.792006
5359.85    80.366432    20.448509
5360.46    81.930679    26.800678
5361.07    76.842010    28.923918
5361.68    58.722740    25.396591
5362.28    60.688190    21.828609
5362.89    71.933250    23.045715
5363.50    71.195213    28.518272
5364.10    70.784569    31.227407
5364.71    70.825279    26.773491
5365.32    71.215103    23.244543
5365.93    73.747040    30.290783
5366.53    72.776115    32.607407
5367.14    70.573395    28.353827
5367.75    71.794785    23.301619
5368.35    76.046349    19.879124
5368.96    79.612602    22.060791
5369.57    81.155060    27.746605
5370.18    78.574471    30.251245
5370.78    63.955189    27.496792
5371.39    60.027138    26.430195
5372.00    76.404770    28.064848
5372.60    83.918549    24.014456
5373.21    71.707359    28.275347
5373.82    58.195690    35.207413
5374.43    62.832432    29.593927
5375.03    63.718102    24.840092
5375.64    61.899929    23.778091
5376.25    65.880554    24.943880
5376.85    73.193703    29.042288
5377.46    74.515663    29.364737
5378.07    65.599739    26.616259
5378.68    54.459171    25.387899
5379.28    60.097954    22.984653
5379.89    67.121941    24.668161
5380.50    66.990883    30.987225
5381.10    74.264755    33.210438
5381.71    73.807724    32.092003
5382.32    63.984653    29.332880
5382.92    60.477737    25.692636
5383.53    74.828438    22.892193
5384.14    78.911240    24.220076
5384.75    67.978798    26.999193
5385.35    77.868416    23.716454
5385.96    97.984161    20.519091
5386.57    91.091835    21.565294
5387.17    53.370552    24.712194
5387.78    60.486603    24.673063
5388.39    78.876793    26.551126
5389.00    69.819908    32.051216
5389.60    55.488800    33.499817
5390.21    59.705162    27.533566
5390.82    80.880226    24.563360
5391.42    96.113586    31.951038
5392.03    82.346962    33.464069
5392.64    55.525898    33.911671
5393.25    49.152912    35.985500
5393.85    77.292953    31.035463
5394.46    82.552620    27.785358
5395.07    73.207298    28.008160
5395.67    84.644363    27.866383
5396.28    82.581924    29.137644
5396.89    79.994339    27.682632
5397.50    81.969238    21.976353
5398.10    65.762077    18.164276
5398.71    62.448547    23.541870
5399.32    74.064575    30.698362
5399.92    78.969597    29.504915
5400.53    76.299469    28.094019
5401.14    66.295776    27.899717
5401.75    64.883614    27.011337
5402.35    89.401947    25.334030
5402.96    81.184013    25.138552
5403.57    63.642963    23.133408
5404.17    87.174385    18.108248
5404.78    87.790527    22.092373
5405.39    69.488167    26.762571
5406.00    61.016037    25.047260
5406.60    66.297775    24.498589
5407.21    73.672455    26.130465
5407.82    74.595314    28.318577
5408.42    72.772636    29.731855
5409.03    82.809425    30.595589
5409.64    80.101631    28.952511
5410.25    63.140076    25.140320
5410.85    73.857185    24.299698
5411.46    70.034889    29.999432
5412.07    55.824505    36.476082
5412.67    70.347733    34.632996
5413.28    82.354446    27.216255
5413.89    84.072891    22.103937
5414.50    81.413818    23.712683
5415.10    74.582748    27.680447
5415.71    74.359177    26.144629
5416.32    78.032120    23.068340
5416.92    74.259689    27.085167
5417.53    71.369766    27.812689
5418.14    66.905602    29.301737
5418.74    60.191597    32.432499
5419.35    64.901031    21.947250
5419.96    80.344154    16.782183
5420.57    87.509193    22.361065
5421.17    69.059883    23.800673
5421.78    52.153088    25.541019
5422.39    47.837543    30.657587
5422.99    56.275314    35.055687
5423.60    80.330368    30.769611
5424.21    85.237625    27.695374
5424.82    68.496414    30.083380
5425.42    65.912811    30.329874
5426.03    63.640236    29.266724
5426.64    62.978977    25.845947
5427.24    71.052917    22.462627
5427.85    71.762413    30.586088
5428.46    72.154953    37.094357
5429.07    77.000519    34.999725
5429.67    77.691566    34.444401
5430.28    79.347778    28.246817
5430.89    73.403862    23.060373
5431.49    57.568672    28.205093
5432.10    68.061836    28.093533
5432.71    78.138145    30.121311
5433.32    66.528603    37.832287
5433.92    61.569439    35.653774
5434.53    63.281303    30.632538
5435.14    69.126938    26.254490
5435.74    77.889595    21.643780
5436.35    76.649910    27.660788
5436.96    64.576096    35.369984
5437.57    56.529530    34.328178
5438.17    70.148560    30.637241
5438.78    71.583313    24.860203
5439.39    60.948154    19.809237
5439.99    71.912697    20.713131
5440.60    78.774239    24.892323
5441.21    81.642601    25.302879
5441.82    89.605713    21.844219
5442.42    85.270660    26.929451
5443.03    74.657722    27.237421
5443.64    66.888916    20.974306
5444.24    62.423523    25.130312
5444.85    62.734402    27.170441
5445.46    60.855747    27.726168
5446.07    52.862068    34.061459
5446.67    55.130264    35.183094
5447.28    71.086349    36.073460
5447.89    85.837662    39.038647
5448.49    77.952248    34.042427
5449.10    64.980629    28.849653
5449.71    66.323326    28.028852
5450.32    80.365417    28.754419
5450.92    76.676880    29.225739
5451.53    68.262100    26.814957
5452.14    74.157318    23.086884
5452.74    78.111526    25.028782
5453.35    71.393166    25.230995
5453.96    65.142921    24.155111
5454.56    74.689629    30.242744
5455.17    74.713722    32.436741
5455.78    70.136894    34.157104
5456.39    75.500244    41.278046
5456.99    72.485153    41.275810
5457.60    61.142704    42.962318
5458.21    53.031673    51.850845
5458.81    56.705853    57.466095
5459.42    59.985283    57.037601
5460.03    60.223721    53.487862
5460.64    61.657646    52.302250
5461.24    55.907558    56.929138
5461.85    52.140018    58.099670
5462.46    59.882469    49.920868
5463.06    71.731590    42.188683
5463.67    77.536781    42.310814
5464.28    76.962875    47.246235
5464.89    78.023621    48.173542
5465.49    81.206490    47.896107
5466.10    81.364014    48.025120
5466.71    74.641548    48.016079
5467.31    66.119659    47.545986
5467.92    67.468208    44.053608
5468.53    76.912605    39.044010
5469.14    79.266495    37.087624
5469.74    86.473061    29.714930
5470.35    92.892708    24.180504
5470.96    84.029068    30.870853
5471.56    74.707741    30.323338
5472.17    67.757774    30.573565
5472.78    66.947800    37.036953
5473.39    84.312851    29.451723
5473.99    89.836678    24.698803
5474.60    79.653336    28.045340
5475.21    79.256310    25.519251
5475.81    70.594833    26.699007
5476.42    63.163029    28.834461
5477.03    67.900314    27.332481
5477.64    54.175705    35.156879
5478.24    54.039486    37.922279
5478.85    77.484650    31.092365
5479.46    78.254654    34.137138
5480.06    73.698486    35.568760
5480.67    75.141693    31.577694
5481.28    73.084679    30.571753
5481.89    63.723873    33.085060
5482.49    59.436909    37.151012
5483.10    66.296310    36.958908
5483.71    68.014534    25.321413
5484.31    71.796135    19.828899
5484.92    74.866119    29.328125
5485.53    63.506519    40.720493
5486.14    64.578178    38.375141
5486.74    73.709335    28.720240
5487.35    69.688225    27.341082
5487.96    65.071823    30.936420
5488.56    76.498146    31.194052
5489.17    92.989075    27.161016
5489.78    76.912712    28.494568
5490.38    61.527100    33.733364
5490.99    70.328941    34.666710
5491.60    87.397354    26.876701
5492.21    81.790680    25.299955
5492.81    70.355331    26.686277
5493.42    77.659592    23.217760
5494.03    79.303047    25.551968
5494.63    73.650810    30.763742
5495.24    73.723953    31.125277
5495.85    86.298813    25.241016
5496.46    81.178200    25.954140
5497.06    61.101315    31.288404
5497.67    55.303524    31.200020
5498.28    59.822262    37.053658
5498.88    66.819717    38.658302
5499.49    72.294800    26.756495
5500.10    77.237648    19.130457
5500.71    84.551651    23.185295
5501.31    87.969734    28.990816
5501.92    77.656601    22.875914
5502.53    73.332115    30.549282
5503.13    71.853020    42.299755
5503.74    59.580711    35.049774
5504.35    55.951279    37.993465
5504.96    68.471588    36.904690
5505.56    86.670616    20.994375
5506.17    90.253716    22.218430
5506.78    83.267220    26.766800
5507.38    77.964851    23.892071
5507.99    81.619728    22.862745
5508.60    86.977867    23.518372
5509.21    87.608421    27.065344
5509.81    84.280533    32.638741
5510.42    85.131233    30.496227
5511.03    81.075966    28.105951
5511.63    70.472336    30.886547
5512.24    70.651398    30.089983
5512.85    68.460457    31.499813
5513.46    65.282364    33.925930
5514.06    75.676300    30.253469
5514.67    75.810478    33.289986
5515.28    74.309555    38.244370
5515.88    85.857986    33.628464
5516.49    81.458893    27.205620
5517.10    62.930508    33.652576
5517.71    53.585442    45.959381
5518.31    70.363968    35.638897
5518.92    72.429520    33.052917
5519.53    66.954323    37.455044
5520.13    90.865440    21.386921
5520.74    81.109207    22.086266
5521.35    59.693748    33.265579
5521.95    71.182915    32.036842
5522.56    70.309631    35.648121
5523.17    68.902344    37.181103
5523.78    85.845436    30.356512
5524.38    104.233009    27.074568
5524.99    96.366524    33.895939
5525.60    76.065857    41.061352
5526.20    76.574867    35.645264
5526.81    67.695137    34.523552
5527.42    59.265488    37.161392
5528.03    68.893463    34.049110
5528.63    67.546219    28.685150
5529.24    68.618721    29.635412
5529.85    77.010269    34.945732
5530.45    68.302277    31.649761
5531.06    67.571793    30.579067
5531.67    77.547371    31.754141
5532.28    77.769272    26.569395
5532.88    81.563309    28.981655
5533.49    84.680702    31.306480
5534.10    80.215210    23.927889
5534.70    83.300354    24.462885
5535.31    83.299583    34.427490
5535.92    71.660797    42.906582
5536.53    60.522797    38.634422
5537.13    64.523224    32.540314
5537.74    70.613800    33.390076
5538.35    60.573292    37.129463
5538.95    74.155060    28.489071
5539.56    90.761559    22.749985
5540.17    76.643333    34.228634
5540.78    63.003288    36.679874
5541.38    64.411102    32.944305
5541.99    72.808838    32.917568
5542.60    70.306145    34.711849
5543.20    67.693192    34.300251
5543.81    72.617241    31.819229
5544.42    78.895271    30.403822
5545.03    75.196259    29.164377
5545.63    74.584221    29.307838
5546.24    83.629883    32.239555
5546.85    68.775696    35.705956
5547.45    57.835369    37.136345
5548.06    71.051796    35.240685
5548.67    79.903290    31.249079
5549.28    83.855492    29.966358
5549.88    84.864006    29.845461
5550.49    80.537064    25.936434
5551.10    77.334290    25.569183
5551.70    70.734200    30.122599
5552.31    59.599670    34.603569
5552.92    64.912766    34.055729
5553.53    71.493660    31.057905
5554.13    71.329765    29.132362
5554.74    85.418144    28.511827
5555.35    83.935165    33.021648
5555.95    66.514885    39.147217
5556.56    69.900131    37.101593
5557.17    87.976105    27.581139
5557.77    102.516602    25.064381
5558.38    98.409889    36.966660
5558.99    74.790993    38.436710
5559.60    57.192616    34.409477
5560.20    61.088173    35.053947
5560.81    68.089127    32.544827
5561.42    72.976768    30.717249
5562.02    74.998093    30.982756
5562.63    72.776306    28.853952
5563.24    68.082184    27.746881
5563.85    63.368397    30.795818
5564.45    64.097664    36.276535
5565.06    80.105751    35.783531
5565.67    90.128365    30.324564
5566.27    77.459351    28.342991
5566.88    65.239410    36.880196
5567.49    81.780655    38.193157
5568.10    105.018700    30.040714
5568.70    80.417122    32.891357
5569.31    71.279449    35.347763
5569.92    85.829071    33.996548
5570.52    81.594360    35.624641
5571.13    81.134689    35.940998
5571.74    78.622780    40.063061
5572.35    69.803970    59.185379
5572.95    90.484016    102.555099
5573.56    107.290215    178.362396
5574.17    101.157288    284.179688
5574.77    104.959618    398.573181
5575.38    106.084000    477.922394
5575.99    116.305054    509.269470
5576.60    151.374634    515.802979
5577.20    132.190277    519.815918
5577.81    88.306862    500.673004
5578.42    85.274117    438.527557
5579.02    81.032936    378.057617
5579.63    54.298492    367.110321
5580.24    26.529785    385.060516
5580.85    42.845551    341.315826
5581.45    69.158386    298.104309
5582.06    79.199425    291.878876
5582.67    83.044312    281.221558
5583.27    85.678055    251.702332
5583.88    94.187462    201.470383
5584.49    105.687317    142.782425
5585.10    91.593018    107.441055
5585.70    74.724976    86.560341
5586.31    77.650589    64.485016
5586.92    75.895279    52.635201
5587.52    79.622841    46.297310
5588.13    91.867653    39.117409
5588.74    92.474022    32.521713
5589.35    79.856934    31.046169
5589.95    71.102005    33.189499
5590.56    80.868896    33.866634
5591.17    85.216377    34.548199
5591.77    79.237885    34.972450
5592.38    71.503387    34.822235
5592.99    64.958717    36.693321
5593.59    65.399078    38.245327
5594.20    75.934410    36.300468
5594.81    89.727097    31.337242
5595.42    82.430939    30.727388
5596.02    64.611702    35.244354
5596.63    69.127159    38.807896
5597.24    67.904922    41.686054
5597.84    60.514202    38.541756
5598.45    64.431992    28.310436
5599.06    69.419479    28.821060
5599.67    75.312431    29.932816
5600.27    86.234695    21.846870
5600.88    98.632889    19.635378
5601.49    95.902168    22.224266
5602.09    83.046211    24.979256
5602.70    87.749695    27.297588
5603.31    101.838837    28.560593
5603.92    102.535408    30.346340
5604.52    81.016479    33.616711
5605.13    75.452965    32.868576
5605.74    80.059242    30.833511
5606.34    76.737610    31.166777
5606.95    83.302254    28.963516
5607.56    83.422127    28.552862
5608.17    71.450531    30.981743
5608.77    74.790810    28.891588
5609.38    86.756523    28.753830
5609.99    89.681175    32.120758
5610.59    77.085350    33.390343
5611.20    75.930161    35.802227
5611.81    77.853348    38.135868
5612.42    63.678280    36.744942
5613.02    62.076199    33.837418
5613.63    73.657906    31.439272
5614.24    79.704987    31.584576
5614.84    67.924515    35.546772
5615.45    65.387520    33.935543
5616.06    77.835846    27.087143
5616.67    75.749741    27.220823
5617.27    72.149895    24.433392
5617.88    72.952560    22.435457
5618.49    70.679016    33.220711
5619.09    70.253822    40.645714
5619.70    75.787239    39.186314
5620.31    82.924728    34.682327
5620.92    76.959297    33.624470
5621.52    65.763748    35.996593
5622.13    60.297523    39.595036
5622.74    60.694157    42.030960
5623.34    77.021286    32.640369
5623.95    96.122002    20.972483
5624.56    91.716019    28.574659
5625.17    97.551147    27.993057
5625.77    101.113556    22.264708
5626.38    72.317596    32.706787
5626.99    61.130581    39.037865
5627.59    72.404503    35.584259
5628.20    80.980240    31.052452
5628.81    75.387901    34.343544
5629.41    73.285767    36.996891
5630.02    81.657234    32.400997
5630.63    81.924988    26.919622
5631.24    81.753334    27.108219
5631.84    87.392136    32.281128
5632.45    93.941795    34.987942
5633.06    93.903938    29.881506
5633.66    89.269318    26.342487
5634.27    84.872139    32.855461
5634.88    76.690346    32.759785
5635.49    79.136925    29.758551
5636.09    93.302399    31.013472
5636.70    86.913994    28.757484
5637.31    78.707840    26.655952
5637.91    80.075424    27.012951
5638.52    72.708984    25.575701
5639.13    67.600433    25.219332
5639.74    69.144974    28.405748
5640.34    70.332947    33.287941
5640.95    72.875671    32.824039
5641.56    73.675560    29.591434
5642.16    72.691261    29.125418
5642.77    82.656578    28.164356
5643.38    82.956299    30.554770
5643.99    68.493324    36.585304
5644.59    75.379349    36.701714
5645.20    69.913445    36.454861
5645.81    52.983639    36.041920
5646.41    74.398834    28.415236
5647.02    87.922798    30.010502
5647.63    77.781433    37.253708
5648.24    71.014427    33.179314
5648.84    73.644562    28.396702
5649.45    70.562721    29.947189
5650.06    57.956703    34.720322
5650.66    70.156792    32.505775
5651.27    77.284416    29.972933
5651.88    59.502869    32.750557
5652.49    54.761868    33.434086
5653.09    58.713406    32.726078
5653.70    65.108788    31.987623
5654.31    78.656570    30.788393
5654.91    83.986252    32.477390
5655.52    72.771584    35.146423
5656.13    54.978027    33.974731
5656.74    58.888298    30.645412
5657.34    71.862061    28.981945
5657.95    71.596962    31.236113
5658.56    70.442078    34.821564
5659.16    75.757660    33.641762
5659.77    84.458214    28.276962
5660.38    86.739471    28.256426
5660.99    85.198288    28.827602
5661.59    82.932144    29.065243
5662.20    79.104088    33.074692
5662.81    73.601654    29.451324
5663.41    65.746773    28.006582
5664.02    56.778374    42.578156
5664.63    54.531391    46.150364
5665.23    64.980415    34.377075
5665.84    83.342896    23.309845
5666.45    90.763832    29.044188
5667.06    91.153549    33.677803
5667.66    86.994850    28.148085
5668.27    69.951920    31.941494
5668.88    65.025688    35.860569
5669.48    73.086845    37.142143
5670.09    69.286987    44.335506
5670.70    70.031036    44.571964
5671.31    69.758522    40.994087
5671.91    56.349823    42.937229
5672.52    62.597904    34.642326
5673.13    80.867096    26.388857
5673.73    88.539101    31.632385
5674.34    88.657349    36.762173
5674.95    83.571762    36.070915
5675.56    73.087433    34.737167
5676.16    59.237152    41.680973
5676.77    60.901756    42.483826
5677.38    73.209076    35.875595
5677.98    72.322441    37.054493
5678.59    75.315056    41.802357
5679.20    78.415749    46.759892
5679.81    70.211273    48.386398
5680.41    77.928391    34.419769
5681.02    87.328529    23.476845
5681.63    81.368523    31.407410
5682.23    86.676498    35.450367
5682.84    94.643829    34.961342
5683.45    88.240845    37.574852
5684.06    68.994850    44.591576
5684.66    64.646500    49.789661
5685.27    78.396393    51.023212
5685.88    86.594963    50.003387
5686.48    93.118767    39.343552
5687.09    101.112328    31.045692
5687.70    105.270157    40.037838
5688.31    95.543877    45.690933
5688.91    81.028542    44.666534
5689.52    77.118843    42.101143
5690.13    85.152779    35.537186
5690.73    83.677200    42.506779
5691.34    70.447319    60.389458
5691.95    75.645660    54.852547
5692.56    85.788712    44.715378
5693.16    90.101883    42.957375
5693.77    93.183823    41.818577
5694.38    86.534622    51.075909
5694.98    76.109077    58.764465
5695.59    76.119751    47.605236
5696.20    83.539330    40.801735
5696.81    86.543625    40.922104
5697.41    80.755981    38.706722
5698.02    80.078476    35.484928
5698.63    74.122704    37.971565
5699.23    67.170303    43.905651
5699.84    88.224586    40.078880
5700.45    91.419098    39.020630
5701.05    66.714035    45.070374
5701.66    59.989258    45.682083
5702.27    69.629707    36.969788
5702.88    78.351921    28.631229
5703.48    76.196396    31.045418
5704.09    79.636795    31.505606
5704.70    87.384384    28.360542
5705.30    88.703651    28.233923
5705.91    84.047165    33.640915
5706.52    86.754707    35.386795
5707.13    96.684082    31.939241
5707.73    90.729973    36.975563
5708.34    77.217613    40.100025
5708.95    67.998909    36.999645
5709.55    67.457268    36.669674
5710.16    85.450272    33.426643
5710.77    98.582069    28.761086
5711.38    80.077728    29.462553
5711.98    75.576019    30.428463
5712.59    77.462914    33.039341
5713.20    60.551144    39.670349
5713.80    53.106888    42.877907
5714.41    66.419998    36.852394
5715.02    85.933685    26.602678
5715.63    84.069893    28.497801
5716.23    85.378242    38.538239
5716.84    97.889442    44.026188
5717.45    93.901993    36.485104
5718.05    77.538383    28.946474
5718.66    65.635971    29.303583
5719.27    71.224586    33.501747
5719.88    84.836510    32.267620
5720.48    84.650459    30.210066
5721.09    67.323074    34.239002
5721.70    75.597168    34.893700
5722.30    87.893898    34.132870
5722.91    80.683609    36.550858
5723.52    82.092407    39.281849
5724.13    80.290977    39.827065
5724.73    73.888290    36.241425
5725.34    86.599480    28.662210
5725.95    97.397362    25.483843
5726.55    86.443520    30.550323
5727.16    61.970055    38.707172
5727.77    73.328178    38.102409
5728.38    105.010902    30.825237
5728.98    107.249702    27.559998
5729.59    80.139656    31.821178
5730.20    63.501492    36.814262
5730.80    76.344704    35.664310
5731.41    76.948822    31.345385
5732.02    74.651512    32.881844
5732.63    78.998253    39.758282
5733.23    75.762733    38.707947
5733.84    86.579521    30.366201
5734.45    99.859901    23.939480
5735.05    84.202545    26.514256
5735.66    93.104240    24.612129
5736.27    112.417274    21.106462
5736.87    95.356941    25.881748
5737.48    81.178810    26.632448
5738.09    81.934120    24.992605
5738.70    85.164474    28.043091
5739.30    80.661636    32.959538
5739.91    76.456192    33.076683
5740.52    80.389618    29.939651
5741.12    86.993614    34.762985
5741.73    83.279480    39.139786
5742.34    74.975372    37.963669
5742.95    81.992813    35.946381
5743.55    91.921982    33.628265
5744.16    91.043289    31.886431
5744.77    79.426651    31.399996
5745.37    77.893936    29.499228
5745.98    85.784187    29.559216
5746.59    91.321968    34.129177
5747.20    92.373688    36.137283
5747.80    85.776054    33.899570
5748.41    77.184189    31.826731
5749.02    81.470383    36.078529
5749.62    80.137634    37.409809
5750.23    75.908394    33.038086
5750.84    94.727463    32.431034
5751.45    98.779724    36.834682
5752.05    86.362579    37.486034
5752.66    87.014885    27.128193
5753.27    82.529358    22.458265
5753.87    75.462761    25.800152
5754.48    76.993011    29.308119
5755.09    73.656876    31.500891
5755.70    69.496391    31.924076
5756.30    72.257240    31.102829
5756.91    77.614426    31.027756
5757.52    80.718628    33.210987
5758.12    79.159424    35.953983
5758.73    75.922195    35.155834
5759.34    84.586037    32.793701
5759.95    95.031479    29.753111
5760.55    85.744720    26.154491
5761.16    81.132393    28.111443
5761.77    84.211411    32.423149
5762.37    80.472366    31.827234
5762.98    69.420387    29.124605
5763.59    55.185913    35.294899
5764.20    51.443043    48.356903
5764.80    77.661308    42.609581
5765.41    92.330818    37.341019
5766.02    79.540100    45.501652
5766.62    82.649620    47.512756
5767.23    84.865013    44.480602
5767.84    70.364380    47.308144
5768.45    52.969002    60.603771
5769.05    68.585587    58.424988
5769.66    97.138214    40.638138
5770.27    95.740730    29.383268
5770.87    89.843712    33.380295
5771.48    90.477982    37.595985
5772.09    92.130516    30.806110
5772.69    89.977753    32.273327
5773.30    91.817642    36.877014
5773.91    97.905472    36.148876
5774.52    92.608162    35.081078
5775.12    83.272385    32.524239
5775.73    79.002808    31.989941
5776.34    78.696487    40.057518
5776.94    72.434090    43.252380
5777.55    72.184853    38.447342
5778.16    92.284363    33.578598
5778.77    95.651367    28.955608
5779.37    85.588089    23.937174
5779.98    83.548775    21.837400
5780.59    78.741669    31.341011
5781.19    72.465096    40.509777
5781.80    70.837181    39.373127
5782.41    73.169708    37.439831
5783.02    73.430901    34.388500
5783.62    71.030663    33.798042
5784.23    73.057350    43.371033
5784.84    80.085823    43.689327
5785.44    85.013580    34.608761
5786.05    80.838493    34.961010
5786.66    78.234932    40.621059
5787.27    83.441200    41.299576
5787.87    89.952026    35.201599
5788.48    79.653381    39.775784
5789.09    78.174530    41.438023
5789.69    97.639389    31.469124
5790.30    89.935959    37.864571
5790.91    73.904129    46.670044
5791.52    75.398788    43.403477
5792.12    84.936501    38.913960
5792.73    81.677414    41.265209
5793.34    68.741814    46.029701
5793.94    69.833237    42.371120
5794.55    81.724892    37.841606
5795.16    95.748756    38.423023
5795.77    103.935158    41.981434
5796.37    100.090286    38.966557
5796.98    99.620056    36.291634
5797.59    109.078568    41.215137
5798.19    98.083488    41.739353
5798.80    84.411156    37.247814
5799.41    83.362816    33.194969
5800.02    75.596169    33.293003
5800.62    72.335754    34.184891
5801.23    76.996124    34.996304
5801.84    75.873306    38.588940
5802.44    75.510216    40.568470
5803.05    80.749657    38.664337
5803.66    88.351837    34.056156
5804.27    90.481384    28.130592
5804.87    88.710350    27.928204
5805.48    85.866608    36.270031
5806.09    75.688980    40.018940
5806.69    77.732384    38.251316
5807.30    94.978790    37.603828
5807.91    89.291466    42.973686
5808.51    75.600357    46.497917
5809.12    77.544930    43.189075
5809.73    95.364227    37.505081
5810.34    99.838905    33.019112
5810.94    90.648369    32.080132
5811.55    91.848907    33.650314
5812.16    92.348000    29.296329
5812.76    82.444000    25.018278
5813.37    67.581459    30.209021
5813.98    70.410210    34.917702
5814.59    81.092346    34.305984
5815.19    80.383354    32.535439
5815.80    70.013115    38.400471
5816.41    69.297279    37.600407
5817.01    82.238358    29.961273
5817.62    88.051201    38.219982
5818.23    90.109947    37.377792
5818.84    88.778770    24.768478
5819.44    80.718933    26.521601
5820.05    88.689171    30.884504
5820.66    101.487846    30.889275
5821.26    93.607635    31.040770
5821.87    85.254303    35.937946
5822.48    87.549393    38.814098
5823.09    94.649048    34.666389
5823.69    91.624352    33.643536
5824.30    94.185638    31.490355
5824.91    105.731720    27.820889
5825.51    98.480896    33.963554
5826.12    92.279358    33.773521
5826.73    86.973381    26.999207
5827.34    61.720646    33.526115
5827.94    76.438965    38.179256
5828.55    107.741562    37.003288
5829.16    88.672867    38.265926
5829.76    82.886482    35.337227
5830.37    92.766556    33.367828
5830.98    88.625175    37.661385
5831.59    90.937538    35.087402
5832.19    93.567451    29.922197
5832.80    86.959038    30.533138
5833.41    82.974190    34.992664
5834.01    91.262123    37.286007
5834.62    100.099846    35.096748
5835.23    86.143593    32.273590
5835.84    80.121124    32.976860
5836.44    87.261528    35.019943
5837.05    83.893715    33.487904
5837.66    76.694687    33.309910
5838.26    75.574341    33.901340
5838.87    82.858231    31.760134
5839.48    88.875748    29.570267
5840.09    87.878433    32.794373
5840.69    81.806519    40.325050
5841.30    79.948883    40.239525
5841.91    86.681900    37.153137
5842.51    95.756325    37.837589
5843.12    94.346024    41.193047
5843.73    90.663254    41.289783
5844.33    86.659821    38.968918
5844.94    75.273689    39.921497
5845.55    63.767879    38.704498
5846.16    67.155113    37.090099
5846.76    86.913216    39.567413
5847.37    86.161171    39.200600
5847.98    77.405037    38.083710
5848.58    84.912910    38.513294
5849.19    93.837982    33.306618
5849.80    95.595795    31.883848
5850.41    89.734581    36.858150
5851.01    80.895325    34.128349
5851.62    74.921738    31.859430
5852.23    74.016197    32.985817
5852.83    77.698692    30.364412
5853.44    90.735916    31.658417
5854.05    105.200081    32.504570
5854.66    106.560219    26.085361
5855.26    95.430069    32.253334
5855.87    86.082710    42.037342
5856.48    88.269379    39.181252
5857.08    89.344063    35.368439
5857.69    85.044533    37.530689
5858.30    77.806969    43.518990
5858.91    73.679276    44.510460
5859.51    86.429001    38.759834
5860.12    105.928665    32.026619
5860.73    100.477493    32.819637
5861.33    77.459549    38.022469
5861.94    62.862328    42.238392
5862.55    74.517685    42.054165
5863.16    85.920776    38.320099
5863.76    83.405731    37.529972
5864.37    74.006813    42.365524
5864.98    75.782234    41.547596
5865.58    82.498726    36.541565
5866.19    82.488342    36.936329
5866.80    77.323303    49.003929
5867.41    72.294243    53.131218
5868.01    70.978149    44.216942
5868.62    75.037010    41.753246
5869.23    91.035706    41.710495
5869.83    104.075005    41.022587
5870.44    92.668762    43.244026
5871.05    81.015488    48.771809
5871.66    74.575684    52.007126
5872.26    65.730392    48.343597
5872.87    62.790901    44.181351
5873.48    72.138191    44.898781
5874.08    86.860641    47.419487
5874.69    85.464638    39.855923
5875.30    74.915092    31.885336
5875.91    71.725655    31.878397
5876.51    85.028175    33.980373
5877.12    104.421707    29.737797
5877.73    106.073471    27.346195
5878.33    78.410202    39.378487
5878.94    72.667389    38.709820
5879.55    84.999184    30.646484
5880.15    82.064476    35.562370
5880.76    82.374290    37.102253
5881.37    88.736877    34.503967
5881.98    93.503479    34.726234
5882.58    94.262619    36.527073
5883.19    87.246071    36.642857
5883.80    79.920151    35.046230
5884.40    87.202682    36.078831
5885.01    81.674889    40.613697
5885.62    64.642975    47.283524
5886.23    65.144669    53.049854
5886.83    59.775555    53.424778
5887.44    60.306255    52.088100
5888.05    86.178177    55.507629
5888.65    88.410286    60.499027
5889.26    79.597328    65.151917
5889.87    84.902725    69.285599
5890.48    77.087540    72.340569
5891.08    62.212563    70.460175
5891.69    63.506565    64.392715
5892.30    91.461151    61.592510
5892.90    95.028091    60.387630
5893.51    72.647400    61.099464
5894.12    74.760513    66.380646
5894.73    74.439873    68.105606
5895.33    63.719418    65.693832
5895.94    62.419998    62.874771
5896.55    80.147469    54.443558
5897.15    88.713799    47.016888
5897.76    74.011818    46.317978
5898.37    81.832756    42.715012
5898.98    87.202904    41.634430
5899.58    70.318481    45.781715
5900.19    63.644028    45.336319
5900.80    67.059242    43.258995
5901.40    67.905212    43.007027
5902.01    62.299805    42.943787
5902.62    77.333344    39.547817
5903.23    88.787178    38.451839
5903.83    63.541286    44.462997
5904.44    66.904648    41.108120
5905.05    84.883583    34.096260
5905.65    78.718529    35.343170
5906.26    74.448219    37.865974
5906.87    70.826309    37.398537
5907.48    63.388496    35.105541
5908.08    63.456226    35.696381
5908.69    65.779381    38.152725
5909.30    71.188232    37.942173
5909.90    85.720490    32.098049
5910.51    86.666946    29.378691
5911.12    81.241882    32.582920
5911.73    87.755516    38.040298
5912.33    75.625435    44.454552
5912.94    60.780598    51.865757
5913.55    68.617401    55.877766
5914.15    77.860466    45.852524
5914.76    86.413506    38.353764
5915.37    93.875435    44.311707
5915.97    90.342239    48.564754
5916.58    90.967010    43.144360
5917.19    89.754807    35.984703
5917.80    65.635994    41.315674
5918.40    61.772511    44.793724
5919.01    72.067101    44.146442
5919.62    65.020416    45.859406
5920.22    79.726280    39.416603
5920.83    88.825142    35.644848
5921.44    65.582596    43.241802
5922.05    69.774353    40.788052
5922.65    81.484856    34.555492
5923.26    77.146217    33.177284
5923.87    79.790977    30.507553
5924.47    70.734070    33.963341
5925.08    62.261383    40.015091
5925.69    89.597855    35.572964
5926.30    91.347931    35.360699
5926.90    77.254494    41.786728
5927.51    95.584541    44.459930
5928.12    97.433022    41.052368
5928.72    84.722351    37.725491
5929.33    80.848183    39.502342
5929.94    74.688927    41.067112
5930.55    77.117416    38.424362
5931.15    91.100266    34.115265
5931.76    94.734383    36.452423
5932.37    82.372375    43.668461
5932.97    73.152504    46.911320
5933.58    89.345245    39.987034
5934.19    94.456345    39.096355
5934.80    82.192360    43.205940
5935.40    77.014473    40.410812
5936.01    89.390976    36.363495
5936.62    90.618225    36.718491
5937.22    66.889366    41.309494
5937.83    64.218369    43.100735
5938.44    71.838562    40.697701
5939.05    71.150833    36.283333
5939.65    69.123558    32.856552
5940.26    66.854179    31.856634
5940.87    69.410851    33.092323
5941.47    79.965096    35.216393
5942.08    75.203476    36.884789
5942.69    62.944344    36.820168
5943.30    66.262070    34.703526
5943.90    75.852631    32.722725
5944.51    70.861320    35.605713
5945.12    52.246033    43.097107
5945.72    56.933441    45.825340
5946.33    62.820217    46.377697
5946.94    61.544083    44.334347
5947.55    80.472984    33.592861
5948.15    78.358719    30.428503
5948.76    61.885437    33.974064
5949.37    74.881042    30.129431
5949.97    71.868240    34.393639
5950.58    61.046890    41.433971
5951.19    73.802429    38.616722
5951.79    79.847954    39.068195
5952.40    79.308228    41.196121
5953.01    82.602760    40.100502
5953.62    84.032341    40.672070
5954.22    83.950294    43.153961
5954.83    82.080582    44.993286
5955.44    76.483803    43.908817
5956.04    75.749466    42.129429
5956.65    80.451462    40.877621
5957.26    81.295517    39.081566
5957.87    70.926590    35.227787
5958.47    67.518211    33.008942
5959.08    80.291626    36.603931
5959.69    72.257713    42.974026
5960.29    66.304153    42.294346
5960.90    77.604164    33.681042
5961.51    73.216736    31.219414
5962.12    85.380241    32.781181
5962.72    102.883850    38.148338
5963.33    72.933731    48.836662
5963.94    67.168999    41.200100
5964.54    87.327583    24.776943
5965.15    81.918495    26.080486
5965.76    76.920151    31.282064
5966.37    78.125847    34.996845
5966.97    76.521103    37.291969
5967.58    73.930893    32.887371
5968.19    75.291481    29.849983
5968.79    81.551231    34.525589
5969.40    87.111046    41.555630
5970.01    87.112175    41.776424
5970.62    83.893860    36.817307
5971.22    85.388496    35.634640
5971.83    94.103943    32.492950
5972.44    98.593109    28.654757
5973.04    90.597145    29.401525
5973.65    88.109337    31.952114
5974.26    77.076767    36.830658
5974.87    59.515556    41.155796
5975.47    81.418541    35.819489
5976.08    92.095879    33.750034
5976.69    70.342316    40.854713
5977.29    65.653755    44.983444
5977.90    70.566048    40.207977
5978.51    73.118408    32.506035
5979.12    74.029762    32.504494
5979.72    78.254318    38.016232
5980.33    77.582458    42.540028
5980.94    68.029648    40.441917
5981.54    69.516563    32.061722
5982.15    75.298096    30.005266
5982.76    75.952789    37.482491
5983.36    77.115097    39.115536
5983.97    75.735413    37.069424
5984.58    74.059097    35.985096
5985.19    79.038887    35.601334
5985.79    81.964951    33.277782
5986.40    82.191772    30.834856
5987.01    82.968536    31.564831
5987.61    76.071342    33.226177
5988.22    68.913628    37.832016
5988.83    71.064659    42.375504
5989.44    76.921059    35.049931
5990.04    71.680153    36.449371
5990.65    65.700523    46.977852
5991.26    88.539680    37.407234
5991.86    98.969994    34.020451
5992.47    88.124260    40.105984
5993.08    84.337784    34.931923
5993.69    82.378357    32.704445
5994.29    74.568787    38.768097
5994.90    65.692039    43.184124
5995.51    74.946640    31.230600
5996.11    77.512474    28.720303
5996.72    61.935711    43.435581
5997.33    62.023884    37.906193
5997.94    74.138992    30.137157
5998.54    82.040009    33.146255
5999.15    75.414581    36.921455
5999.76    61.588326    43.007191
6000.36    59.453827    44.205948
6000.97    77.509689    34.325237
6001.58    86.621490    30.177120
6002.19    78.075638    34.901657
6002.79    64.826889    39.960274
6003.40    67.342079    36.316574
6004.01    76.271400    34.376125
6004.61    80.944748    36.042824
6005.22    82.120148    30.416391
6005.83    74.436073    34.579124
6006.44    63.039928    44.481953
6007.04    60.926182    40.743961
6007.65    71.268181    32.825794
6008.26    84.650551    30.126001
6008.86    89.354095    33.437103
6009.47    84.124786    34.159962
6010.08    78.885223    29.980675
6010.69    78.976692    25.996798
6011.29    79.021317    29.141808
6011.90    82.513695    28.181150
6012.51    90.586678    23.988600
6013.11    97.637245    27.432941
6013.72    94.385742    25.714754
6014.33    82.448074    24.998098
6014.94    73.781548    34.532112
6015.54    81.622498    35.136940
6016.15    92.131577    31.303364
6016.76    89.868683    30.338196
6017.36    79.449821    25.257946
6017.97    71.071556    25.744661
6018.58    70.051537    32.093567
6019.18    72.235176    31.584274
6019.79    65.730247    27.751623
6020.40    64.597313    27.428362
6021.01    84.873177    32.137615
6021.61    95.883942    32.560280
6022.22    94.067551    28.864985
6022.83    94.088837    24.698565
6023.43    104.738937    20.537739
6024.04    110.260170    26.380001
6024.65    100.163971    37.940842
6025.26    84.753983    35.331860
6025.86    84.742210    25.495110
6026.47    85.595596    23.762741
6027.08    67.407127    34.440067
6027.68    78.180397    32.111992
6028.29    96.844215    23.935551
6028.90    90.166199    26.206974
6029.51    90.336258    29.514053
6030.11    97.792892    27.243887
6030.72    99.205414    22.100527
6031.33    89.161682    22.822718
6031.93    80.442902    24.655296
6032.54    75.340637    25.064617
6033.15    67.934921    26.388189
6033.76    69.206650    28.401438
6034.36    71.546135    32.119858
6034.97    67.014206    37.886662
6035.58    72.476555    42.182121
6036.18    79.653595    40.354698
6036.79    83.477333    33.399918
6037.40    94.425705    28.770260
6038.01    90.780190    25.045130
6038.61    74.064278    24.215620
6039.22    69.402496    30.087399
6039.83    72.001160    33.192036
6040.43    75.769028    31.476824
6041.04    79.808693    29.257200
6041.65    85.721619    28.944784
6042.26    85.512123    28.759350
6042.86    75.874962    29.651968
6043.47    67.675133    35.580692
6044.08    72.426804    32.247719
6044.68    83.363586    23.890276
6045.29    82.794327    29.375620
6045.90    78.507248    33.351746
6046.51    78.547478    30.085876
6047.11    84.334732    26.235603
6047.72    90.769341    27.630835
6048.33    90.958412    30.816408
6048.93    83.748627    31.924040
6049.54    77.855598    33.080929
6050.15    83.682144    34.915749
6050.76    92.013893    33.758579
6051.36    81.847404    27.502449
6051.97    64.377731    30.747990
6052.58    63.271820    35.954964
6053.18    82.591339    30.172552
6053.79    80.350586    28.844372
6054.40    72.521675    29.882824
6055.00    76.965164    29.696062
6055.61    71.243202    35.422451
6056.22    68.593025    35.128162
6056.83    78.636765    26.639576
6057.43    90.315300    22.213062
6058.04    85.337761    22.966082
6058.65    75.252396    25.348454
6059.25    81.736290    26.033834
6059.86    95.967834    25.618372
6060.47    98.051674    24.644890
6061.08    83.389481    25.601963
6061.68    73.720055    31.836428
6062.29    77.778435    33.320835
6062.90    90.653038    25.464256
6063.50    96.755714    16.873997
6064.11    78.113564    23.100586
6064.72    60.151905    31.123505
6065.33    70.458588    24.303036
6065.93    75.340355    23.243830
6066.54    80.317413    22.744761
6067.15    89.145973    18.010300
6067.75    76.870949    23.200554
6068.36    65.856216    28.935024
6068.97    67.114883    31.226421
6069.58    68.136681    35.586658
6070.18    72.203125    33.628269
6070.79    79.611702    28.190802
6071.40    84.900719    26.994184
6072.00    82.768341    26.955750
6072.61    87.929939    27.148500
6073.22    92.979630    28.787991
6073.83    64.605545    32.337765
6074.43    62.894005    31.888950
6075.04    87.938835    27.723209
6075.65    79.469994    26.468073
6076.25    64.036453    28.858561
6076.86    63.510872    27.943846
6077.47    73.867554    20.905838
6078.08    72.369171    20.426056
6078.68    59.699257    26.876234
6079.29    52.799126    33.788788
6079.90    66.856163    35.010448
6080.50    80.481873    28.997381
6081.11    81.743568    22.727291
6081.72    76.945297    24.170803
6082.33    71.238525    25.522358
6082.93    68.946587    24.833633
6083.54    71.385735    27.571985
6084.15    74.647209    38.739403
6084.75    73.976265    36.966171
6085.36    68.110687    21.150894
6085.97    62.599689    20.723135
6086.58    71.122002    28.040245
6087.18    86.574440    28.142063
6087.79    87.540848    18.969540
6088.40    69.704750    22.242098
6089.00    62.617992    28.482141
6089.61    80.847214    23.037716
6090.22    88.361969    16.830666
6090.82    82.461678    19.931740
6091.43    74.894310    27.051878
6092.04    73.392937    24.937147
6092.65    71.307961    29.106449
6093.25    71.871429    33.637821
6093.86    80.850853    25.550135
6094.47    86.890739    24.002703
6095.07    86.068336    26.186865
6095.68    83.862854    23.385534
6096.29    89.262238    19.656801
6096.90    95.174622    22.771454
6097.50    88.918633    29.226290
6098.11    69.855598    28.212896
6098.72    72.387871    25.403246
6099.32    79.004356    26.911617
6099.93    67.307159    32.296371
6100.54    78.133057    33.270065
6101.15    84.462997    31.231600
6101.75    72.184944    30.019150
6102.36    77.805130    29.961760
6102.97    83.036415    29.953362
6103.57    78.322571    31.378647
6104.18    75.856133    34.318890
6104.79    83.127441    29.831959
6105.40    85.910675    24.170334
6106.00    77.507202    24.828886
6106.61    80.797676    24.673925
6107.22    86.502388    20.914785
6107.82    83.869255    18.018417
6108.43    78.208252    22.563919
6109.04    81.330345    27.656204
6109.65    82.945816    28.964031
6110.25    71.101700    28.031887
6110.86    69.112167    28.833954
6111.47    81.176086    28.274435
6112.07    87.723984    25.141504
6112.68    65.973602    25.124834
6113.29    60.803398    26.845089
6113.90    80.564316    25.626951
6114.50    89.879707    20.029659
6115.11    92.454727    19.837097
6115.72    92.892990    22.196827
6116.32    86.593735    21.799850
6116.93    65.372055    24.598391
6117.54    55.512863    23.232723
6118.15    65.005981    20.002031
6118.75    68.409012    28.644749
6119.36    67.266174    32.706524
6119.97    68.629189    28.160427
6120.57    75.088448    24.467627
6121.18    81.673462    23.696890
6121.79    80.122757    24.052589
6122.40    76.471443    23.167370
6123.00    90.709564    20.997530
6123.61    93.843750    22.406954
6124.22    80.021080    22.585348
6124.82    75.166328    14.339940
6125.43    79.968201    15.852172
6126.04    84.357262    23.293276
6126.64    83.733620    24.189350
6127.25    87.637596    22.878075
6127.86    85.018822    21.399000
6128.47    74.977242    22.011608
6129.07    73.451469    27.083857
6129.68    70.190796    30.293896
6130.29    68.710686    31.265688
6130.89    77.402405    32.959564
6131.50    79.396774    31.601107
6132.11    75.924141    29.570982
6132.72    74.937363    29.067636
6133.32    76.939224    26.962029
6133.93    78.425728    22.375254
6134.54    75.396385    18.901855
6135.14    70.630516    21.310499
6135.75    82.038834    27.085983
6136.36    94.466164    28.358671
6136.97    89.316940    23.422424
6137.57    80.168091    23.656929
6138.18    70.762924    25.389992
6138.79    66.044487    24.990702
6139.39    70.478500    25.072311
6140.00    63.720558    24.404472
6140.61    63.994114    22.575130
6141.22    85.591858    21.659695
6141.82    75.138901    25.575970
6142.43    63.844498    32.948639
6143.04    73.864426    37.971489
6143.64    69.857727    34.499630
6144.25    74.188309    26.143051
6144.86    83.007027    20.745588
6145.47    74.639862    22.955954
6146.07    75.684639    25.899893
6146.68    88.425156    23.344028
6147.29    96.186058    18.916010
6147.89    85.193832    24.826500
6148.50    67.720352    28.365166
6149.11    60.009102    25.894735
6149.72    66.089424    28.114742
6150.32    68.469391    34.745789
6150.93    66.939125    36.108517
6151.54    70.854126    29.540586
6152.14    79.238335    30.174530
6152.75    73.263901    32.323936
6153.36    55.553093    30.955336
6153.97    52.596947    30.315742
6154.57    60.677204    29.092356
6155.18    63.036175    29.489162
6155.79    57.771164    30.808340
6156.39    74.637375    22.889498
6157.00    83.004410    24.552094
6157.61    73.013062    35.971142
6158.22    82.243134    28.860825
6158.82    80.572243    27.885365
6159.43    67.640953    32.949383
6160.04    66.837181    27.628006
6160.64    65.760719    30.072493
6161.25    67.875587    34.728764
6161.86    72.152618    32.222153
6162.46    62.618088    28.032059
6163.07    56.503170    23.673849
6163.68    59.393593    22.162605
6164.29    61.916126    24.856962
6164.89    67.234940    23.080463
6165.50    71.926132    25.037073
6166.11    70.475281    33.640522
6166.71    64.439453    31.056595
6167.32    67.450096    23.512527
6167.93    75.252380    24.853085
6168.54    72.128571    37.746876
6169.14    71.530800    37.583450
6169.75    76.662483    29.283112
6170.36    83.137794    27.892069
6170.96    88.611343    28.915600
6171.57    81.186966    28.413319
6172.18    67.514771    25.806520
6172.79    67.811844    23.314711
6173.39    69.360451    23.310221
6174.00    65.754364    22.250523
6174.61    64.807877    19.016539
6175.21    78.105499    22.012926
6175.82    77.996773    24.017431
6176.43    62.668133    23.047974
6177.04    64.992790    25.896641
6177.64    71.509964    23.359800
6178.25    69.627289    21.661573
6178.86    63.813835    27.576866
6179.46    71.240143    25.094015
6180.07    75.990532    21.198622
6180.68    71.984573    22.010557
6181.29    74.824409    22.152744
6181.89    71.361290    26.152380
6182.50    65.669151    30.349382
6183.11    69.821983    27.944534
6183.71    74.709648    23.140659
6184.32    73.551567    25.220573
6184.93    65.954163    29.992563
6185.54    58.690197    22.632227
6186.14    64.635345    20.196474
6186.75    75.313431    24.729843
6187.36    76.783836    25.376848
6187.96    79.257118    22.776520
6188.57    76.409821    22.627424
6189.18    69.010628    24.997591
6189.79    71.773293    23.189121
6190.39    71.974670    20.980001
6191.00    70.308853    22.775961
6191.61    78.214851    27.503458
6192.21    92.280304    27.608660
6192.82    91.209610    29.913656
6193.43    73.127869    34.011459
6194.04    64.619568    28.203243
6194.64    64.699768    29.978508
6195.25    72.218704    34.941391
6195.86    83.948692    29.081192
6196.46    80.775803    27.892006
6197.07    60.723099    33.724804
6197.68    46.971569    37.019196
6198.28    66.211365    28.773205
6198.89    76.054581    22.165531
6199.50    68.787445    23.823690
6200.11    68.746376    27.306496
6200.71    77.156517    21.629505
6201.32    78.504181    18.074955
6201.93    70.997910    23.002426
6202.53    72.689842    24.532303
6203.14    78.057518    18.623007
6203.75    78.348045    15.494852
6204.36    71.531914    23.456646
6204.96    65.333145    28.065218
6205.57    69.362106    24.924011
6206.18    78.037926    21.002712
6206.78    73.142456    25.191013
6207.39    62.883545    27.785267
6208.00    64.134651    25.217350
6208.61    78.521599    22.845352
6209.21    78.027641    25.944647
6209.82    70.095047    25.664928
6210.43    64.808525    20.936340
6211.03    59.560413    21.879999
6211.64    65.413574    20.288290
6212.25    72.396362    21.417847
6212.86    68.488541    30.219627
6213.46    69.587074    29.985888
6214.07    78.886497    27.630669
6214.68    83.762878    26.793491
6215.28    73.162041    21.050148
6215.89    73.704742    21.363653
6216.50    75.539009    24.123610
6217.11    65.445915    20.676373
6217.71    70.117950    16.305372
6218.32    71.000252    20.717297
6218.93    62.595852    30.613039
6219.53    61.884918    31.800655
6220.14    55.058990    23.869188
6220.75    48.140644    24.540123
6221.36    50.664558    34.995941
6221.96    53.662418    23.745281
6222.57    59.976170    15.326932
6223.18    66.326828    19.371094
6223.78    64.820412    19.832888
6224.39    63.114014    21.951662
6225.00    67.224319    24.465878
6225.61    76.483276    21.414108
6226.21    82.979942    12.421126
6226.82    76.064323    14.433484
6227.43    60.720825    24.040874
6228.03    54.618637    25.237679
6228.64    68.357086    24.589226
6229.25    84.734734    23.225727
6229.86    85.080673    21.991043
6230.46    71.526863    25.253105
6231.07    65.288536    28.835512
6231.68    71.990326    26.881857
6232.28    80.383011    19.838711
6232.89    80.121063    18.443436
6233.50    84.886208    18.835501
6234.10    89.691238    22.420105
6234.71    71.272797    36.072727
6235.32    60.687515    37.898834
6235.93    66.133614    33.956703
6236.53    74.258904    36.982864
6237.14    78.619865    32.101105
6237.75    87.395203    22.292833
6238.35    92.506149    19.381790
6238.96    78.724380    27.523811
6239.57    71.089462    27.301945
6240.18    62.474041    21.628994
6240.78    51.740906    20.920364
6241.39    70.687531    22.634430
6242.00    90.274918    22.550787
6242.60    86.801888    22.195770
6243.21    68.154984    24.634909
6243.82    61.674770    24.781792
6244.43    63.527943    23.700573
6245.03    65.012871    22.995117
6245.64    70.230026    21.696539
6246.25    72.774841    24.131378
6246.85    64.966194    27.334352
6247.46    51.763577    24.905651
6248.07    55.360847    18.200806
6248.68    61.557659    19.255596
6249.28    62.195251    26.276823
6249.89    66.440681    25.007935
6250.50    65.091858    22.579441
6251.10    61.274971    19.816008
6251.71    58.497372    17.787975
6252.32    50.560162    24.988005
6252.93    58.745979    31.716259
6253.53    75.554077    28.771877
6254.14    74.040260    19.204382
6254.75    64.541977    19.457039
6255.35    63.510807    27.035255
6255.96    72.054733    30.994892
6256.57    74.753021    27.504742
6257.18    71.481010    29.688478
6257.78    67.151840    36.198761
6258.39    67.313759    35.115620
6259.00    74.655243    23.594975
6259.60    75.889679    18.846750
6260.21    74.501991    23.262323
6260.82    83.457573    22.540468
6261.43    76.851830    21.405457
6262.03    66.008163    20.489855
6262.64    67.826714    17.214806
6263.25    69.571342    13.845975
6263.85    63.118225    24.196823
6264.46    55.104500    35.606834
6265.07    56.105179    29.386189
6265.68    61.669071    25.021250
6266.28    64.431992    19.973299
6266.89    62.900318    16.178762
6267.50    61.473106    24.483128
6268.10    59.953926    22.950371
6268.71    60.689907    15.640761
6269.32    62.197083    16.672918
6269.92    56.114830    21.296581
6270.53    51.620064    23.785709
6271.14    59.333527    21.219950
6271.75    74.082443    16.923223
6272.35    67.483124    21.205339
6272.96    53.618393    23.583540
6273.57    52.126263    21.035500
6274.17    58.258919    26.730724
6274.78    56.004036    30.870327
6275.39    51.960419    27.245998
6276.00    54.160927    19.596394
6276.60    48.565655    16.934097
6277.21    49.597744    20.447918
6277.82    59.197472    24.185694
6278.42    63.025818    22.575006
6279.03    61.219955    20.894363
6279.64    57.781837    21.481403
6280.25    61.232208    21.972816
6280.85    76.094101    19.051407
6281.46    75.970856    17.084887
6282.07    62.424026    17.040956
6282.67    53.487957    18.598425
6283.28    51.679184    24.228937
6283.89    52.466782    28.942930
6284.50    58.711887    29.998255
6285.10    73.384933    28.664238
6285.71    79.022865    25.147251
6286.32    69.476639    24.558283
6286.92    53.623474    30.235262
6287.53    47.623650    37.526962
6288.14    56.293999    34.328411
6288.75    70.746574    28.100349
6289.35    73.885567    27.281803
6289.96    56.020721    21.210094
6290.57    51.569958    19.173937
6291.17    62.116169    20.923859
6291.78    59.807762    19.529135
6292.39    50.470047    24.984373
6293.00    54.905300    22.578695
6293.60    71.688377    13.971437
6294.21    73.583527    22.165270
6294.82    57.133926    26.914709
6295.42    44.283859    30.128569
6296.03    49.516598    50.134403
6296.64    58.390018    96.225998
6297.25    69.701920    160.076752
6297.85    65.098091    225.808136
6298.46    45.973881    280.350677
6299.07    72.110970    323.546082
6299.67    54.412289    369.221680
6300.28    -1.246736    382.222229
6300.89    20.266430    314.085693
6301.50    50.864906    242.285110
6302.10    56.627235    185.719025
6302.71    56.948208    135.198593
6303.32    73.987106    101.526840
6303.92    62.171406    77.399628
6304.53    51.347694    56.993893
6305.14    74.856598    42.776043
6305.74    67.414314    40.423058
6306.35    68.443611    37.459194
6306.96    79.623032    34.181351
6307.57    64.309471    38.606194
6308.17    62.879402    36.045242
6308.78    57.545368    29.372612
6309.39    47.298157    24.736294
6309.99    65.481010    20.946695
6310.60    69.357788    18.645620
6311.21    61.194168    22.085089
6311.82    60.973526    27.035826
6312.42    61.801350    20.402306
6313.03    66.289627    18.177010
6313.64    66.908310    19.710268
6314.24    60.922779    16.942558
6314.85    68.913567    21.065840
6315.46    75.840843    22.451046
6316.07    69.297836    18.559101
6316.67    55.624485    19.063221
6317.28    47.514385    24.768808
6317.89    56.021965    23.956215
6318.49    66.946297    16.744465
6319.10    56.647888    18.701235
6319.71    60.747429    27.262487
6320.32    68.278931    26.625546
6320.92    58.291367    19.918636
6321.53    48.141762    33.049202
6322.14    54.078526    34.838104
6322.74    69.711250    23.575079
6323.35    75.538345    18.378338
6323.96    63.685589    14.914348
6324.57    59.287903    14.030008
6325.17    62.845982    16.637636
6325.78    62.048027    18.537624
6326.39    81.590515    13.001898
6326.99    82.226250    18.153500
6327.60    55.907646    30.411104
6328.21    49.441887    26.077253
6328.82    65.296120    26.620749
6329.42    74.287857    26.449673
6330.03    67.946190    19.929699
6330.64    70.807579    21.643080
6331.24    66.148415    24.506632
6331.85    57.019585    23.086103
6332.46    55.917366    20.048691
6333.07    58.583694    20.937304
6333.67    62.245186    19.375568
6334.28    69.182404    16.858261
6334.89    74.620102    19.464539
6335.49    61.396355    23.629255
6336.10    56.754730    22.135244
6336.71    60.487106    16.075378
6337.32    51.768661    14.304977
6337.92    54.231949    21.250952
6338.53    50.643986    25.842159
6339.14    43.465778    23.780678
6339.74    63.568642    22.405605
6340.35    90.594879    20.066360
6340.96    88.772377    16.658833
6341.56    61.117802    16.118603
6342.17    50.656693    22.473055
6342.78    49.794552    29.284616
6343.39    58.652897    26.374916
6343.99    71.909164    16.125675
6344.60    67.402496    15.371644
6345.21    64.955696    15.874495
6345.81    65.179787    18.664516
6346.42    63.477146    24.925642
6347.03    76.610641    21.036606
6347.64    76.115471    22.858290
6348.24    62.884911    28.240032
6348.85    60.001186    24.478800
6349.46    61.510132    22.670656
6350.06    74.734047    16.991856
6350.67    81.763702    12.161244
6351.28    62.707191    19.436766
6351.89    58.915569    24.901026
6352.49    63.048874    20.926468
6353.10    60.523121    17.367741
6353.71    56.556530    25.708897
6354.31    55.502213    25.808111
6354.92    53.975098    24.680981
6355.53    56.720615    26.881054
6356.14    72.473267    21.311329
6356.74    78.173264    19.777489
6357.35    70.137489    21.285437
6357.96    64.047897    22.059181
6358.56    71.633110    25.453003
6359.17    69.212906    25.477510
6359.78    59.295864    30.038374
6360.39    53.121494    45.705837
6360.99    45.746902    64.828201
6361.60    48.625034    93.481232
6362.21    60.675316    114.129021
6362.81    69.783768    110.536217
6363.42    68.854752    101.874481
6364.03    64.111588    104.401077
6364.64    54.756569    114.120728
6365.24    46.535164    107.560394
6365.85    60.903419    65.896202
6366.46    56.722492    42.964256
6367.06    47.228462    44.835129
6367.67    64.830650    37.238838
6368.28    59.548710    28.327972
6368.89    49.681320    22.038124
6369.49    53.296532    21.630848
6370.10    58.305603    25.978924
6370.71    50.963547    21.358261
6371.31    49.833603    16.612417
6371.92    59.324738    18.560770
6372.53    64.353889    21.144209
6373.14    66.692650    17.731688
6373.74    57.789318    16.378721
6374.35    50.612232    19.246586
6374.96    65.386810    19.172506
6375.56    69.699905    18.728531
6376.17    64.913719    19.495564
6376.78    59.098171    19.918085
6377.38    52.556015    18.288101
6377.99    60.771809    18.267513
6378.60    60.518238    22.138622
6379.21    51.055809    23.648699
6379.81    60.155396    16.204971
6380.42    54.031502    15.931115
6381.03    51.043713    18.251429
6381.63    62.509182    15.761241
6382.24    63.377480    13.775873
6382.85    69.720734    16.745329
6383.46    69.104683    21.957193
6384.06    56.437851    25.102140
6384.67    54.692375    23.794538
6385.28    60.019669    15.028336
6385.88    54.370514    13.837724
6386.49    46.300934    23.326384
6387.10    65.039627    24.000072
6387.71    72.066513    20.512383
6388.31    58.726646    20.981182
6388.92    48.001865    21.813871
6389.53    58.701244    13.053882
6390.13    69.306610    10.578126
6390.74    63.765652    14.360407
6391.35    55.100758    15.995200
6391.96    68.339584    15.476068
6392.56    72.898102    19.201277
6393.17    66.944710    20.163383
6393.78    62.869293    17.025286
6394.38    57.124180    22.686569
6394.99    44.383652    28.466070
6395.60    39.840492    23.495064
6396.21    50.379662    14.968884
6396.81    57.034756    21.753021
6397.42    52.897633    25.420256
6398.03    41.549362    27.765467
6398.63    40.516212    30.879929
6399.24    66.117325    21.284622
6399.85    84.992264    13.058718
6400.46    78.638649    12.617988
6401.06    63.757359    17.263353
6401.67    65.985046    22.438063
6402.28    54.466137    21.676765
6402.88    57.972374    17.458107
6403.49    79.156349    16.065813
6404.10    61.579571    18.676176
6404.71    52.259232    17.835217
6405.31    61.179974    17.652884
6405.92    64.590607    20.026291
6406.53    52.152985    18.343918
6407.13    51.492340    18.694035
6407.74    52.999836    20.664061
6408.35    51.490219    19.735197
6408.95    65.365898    15.014414
6409.56    75.143661    12.799751
6410.17    69.902458    15.975148
6410.78    59.398232    18.924500
6411.38    60.537491    14.855637
6411.99    67.834526    13.399256
6412.60    71.820320    14.422116
6413.20    66.882797    17.752338
6413.81    58.204906    23.896835
6414.42    63.640202    19.386782
6415.03    62.710926    18.576025
6415.63    52.208351    24.321972
6416.24    56.118408    20.389462
6416.85    66.772263    12.997622
6417.45    63.360909    14.411199
6418.06    47.566895    20.460470
6418.67    42.884125    18.496233
6419.28    56.253548    16.592796
6419.88    56.317837    18.308825
6420.49    52.873291    18.394232
6421.10    73.119240    13.390790
6421.70    77.331329    13.118833
6422.31    69.115326    14.693077
6422.92    63.200199    15.041478
6423.53    61.296864    15.837215
6424.13    56.525505    18.033175
6424.74    58.715458    16.063318
6425.35    61.611832    14.282248
6425.95    57.975632    19.655510
6426.56    63.999630    26.131718
6427.17    69.753242    25.348845
6427.78    65.370216    18.922510
6428.38    56.035912    15.986454
6428.99    55.167599    21.028061
6429.60    52.321552    20.183136
6430.20    50.219650    16.138186
6430.81    55.240047    15.995338
6431.42    61.523941    15.700910
6432.03    66.387299    18.094856
6432.63    75.771088    20.683363
6433.24    80.372986    21.006182
6433.85    62.251770    20.504950
6434.45    51.296329    17.113560
6435.06    54.853630    13.941928
6435.67    65.648849    12.882643
6436.28    72.287712    13.344228
6436.88    55.712883    18.893032
6437.49    48.103970    20.809669
6438.10    54.148384    20.544533
6438.70    48.573669    26.388405
6439.31    48.634857    27.685663
6439.92    51.051266    22.537733
6440.53    57.744545    17.176628
6441.13    66.270386    16.897013
6441.74    52.715183    18.595438
6442.35    52.883533    18.865374
6442.95    59.841255    17.565014
6443.56    54.001263    16.020269
6444.17    59.787949    14.823483
6444.77    53.001629    16.415405
6445.38    52.781528    16.220625
6445.99    67.169899    15.164441
6446.60    58.751781    20.727015
6447.20    60.770630    16.253017
6447.81    67.132256    11.413965
6448.42    59.470840    15.591899
6449.02    49.341640    18.299465
6449.63    62.215870    14.304224
6450.24    55.818871    14.590678
6450.85    37.684811    21.031385
6451.45    53.999851    21.670879
6452.06    59.981594    13.580730
6452.67    54.992947    15.186859
6453.27    56.962009    21.427111
6453.88    63.219093    19.008764
6454.49    49.723228    22.241428
6455.10    48.658592    21.105106
6455.70    62.426468    17.351028
6456.31    66.871483    18.026070
6456.92    56.308823    18.189262
6457.52    54.299789    17.137781
6458.13    60.466507    14.945583
6458.74    62.950562    11.594992
6459.35    60.433784     8.908357
6459.95    60.239754    12.100682
6460.56    64.494370    17.509830
6461.17    63.633743    21.769554
6461.77    52.033417    23.343891
6462.38    49.814377    18.203947
6462.99    60.115795    22.666407
6463.60    69.209763    27.371241
6464.20    65.257416    20.087933
6464.81    55.667580    23.007725
6465.42    54.908226    22.092754
6466.02    54.546844    18.378462
6466.63    48.869579    20.169809
6467.24    49.594944    23.691751
6467.85    43.601917    29.783333
6468.45    48.285408    29.044258
6469.06    59.158051    23.729139
6469.67    50.183903    26.472206
6470.27    48.000179    28.005611
6470.88    45.344189    24.541782
6471.49    40.536457    22.036930
6472.10    45.489967    22.206675
6472.70    57.754063    14.588348
6473.31    62.903526    15.076403
6473.92    61.520367    19.830456
6474.52    59.855831    18.956678
6475.13    54.909515    18.496853
6475.74    46.912312    15.139904
6476.35    49.486916    14.899229
6476.95    58.634148    16.835535
6477.56    57.851997    13.295927
6478.17    61.948441    14.325083
6478.77    57.162617    17.775471
6479.38    54.993839    17.212034
6479.99    65.995720    14.001600
6480.59    53.214375    17.075251
6481.20    44.111061    17.483463
6481.81    48.094662    15.642942
6482.42    54.468800    17.240528
6483.02    58.774216    20.037855
6483.63    57.762001    17.176655
6484.24    57.584812    14.190548
6484.84    60.504379    15.396729
6485.45    60.402897    18.542383
6486.06    55.192719    22.810030
6486.67    58.870510    20.583542
6487.27    56.323124    20.371319
6487.88    47.133900    22.888023
6488.49    69.117920     8.817584
6489.09    60.691219    13.513927
6489.70    48.463730    22.484211
6490.31    64.517021    17.105913
6490.92    73.212860    13.776775
6491.52    55.034355    17.849005
6492.13    49.401424    17.260773
6492.74    65.183426    12.028956
6493.34    74.906723    11.005590
6493.95    72.847427    10.424506
6494.56    66.637489     9.205618
6495.17    53.677719    14.346682
6495.77    48.092697    22.272055
6496.38    68.300583    20.187368
6496.99    60.790249    22.891769
6497.59    51.090343    25.740776
6498.20    54.153923    28.229431
6498.81    52.883896    33.918083
6499.42    58.593460    30.267719
6500.02    58.601482    24.764992
6500.63    53.442024    22.443556
6501.24    58.102131    21.995371
6501.84    73.288742    21.422058
6502.45    65.020187    18.353682
6503.06    62.610794    16.708092
6503.67    69.830353    18.591251
6504.27    57.944931    20.930614
6504.88    46.260983    20.950592
6505.49    43.107170    21.661831
6506.09    53.781483    19.232201
6506.70    67.363197    14.980220
6507.31    64.172966    17.833086
6507.92    69.171677    15.237127
6508.52    67.347878    15.393647
6509.13    57.944229    17.698626
6509.74    60.702019    12.304351
6510.34    63.946384     9.952782
6510.95    57.826672    15.333888
6511.56    56.913403    17.174633
6512.17    65.411407    14.147676
6512.77    63.645004    19.491894
6513.38    61.722649    17.114622
6513.99    59.052765    11.561503
6514.59    51.752514    13.435431
6515.20    45.965794    20.854050
6515.81    53.718803    21.256561
6516.41    61.906746    16.514076
6517.02    62.223797    15.737282
6517.63    64.098099    17.899897
6518.24    77.392860    13.700638
6518.84    81.391472    10.867502
6519.45    72.967613    12.407987
6520.06    54.717567    17.997175
6520.66    39.981499    23.014259
6521.27    50.642559    20.622595
6521.88    57.883156    20.405130
6522.49    63.915546    20.597826
6523.09    63.856640    20.322517
6523.70    45.078865    23.753771
6524.31    47.024929    23.300453
6524.91    59.344334    15.042381
6525.52    53.437088    13.894874
6526.13    40.216328    21.021591
6526.74    56.117374    14.184734
6527.34    52.080326    13.985357
6527.95    51.162708    20.232771
6528.56    64.705910    19.525152
6529.16    65.211739    12.060753
6529.77    53.492470    16.450121
6530.38    56.698975    23.698767
6530.99    62.535137    24.183235
6531.59    55.653980    24.978998
6532.20    52.176937    32.918652
6532.81    65.538475    25.552666
6533.41    65.892403    21.295750
6534.02    59.856258    25.142832
6534.63    61.719437    24.769999
6535.24    51.515301    19.120100
6535.84    51.309460    15.496821
6536.45    58.683819    14.985868
6537.06    56.945240    16.639000
6537.66    45.163391    18.982342
6538.27    45.545872    17.875099
6538.88    61.275581    14.871910
6539.49    64.782677    17.066090
6540.09    54.002449    21.043890
6540.70    55.677647    17.370670
6541.31    58.384098    15.060720
6541.91    69.170380    11.126404
6542.52    74.146416    13.858749
6543.13    61.573284    23.489042
6543.74    49.344440    22.480804
6544.34    45.926414    21.192467
6544.95    53.610836    20.106794
6545.56    64.872971    16.873692
6546.16    70.048309    12.896633
6546.77    68.288177    11.353159
6547.38    61.515705    16.823492
6547.99    55.769810    21.290979
6548.59    58.857613    19.068352
6549.20    66.949371    15.991172
6549.81    62.173321    18.683483
6550.41    63.746643    16.764704
6551.02    72.799110    15.606558
6551.63    69.558342    22.586472
6552.23    46.939072    29.846390
6552.84    34.243782    26.251329
6553.45    42.837292    21.676260
6554.06    53.015465    23.364990
6554.66    50.486328    25.923548
6555.27    50.011524    21.032375
6555.88    60.602116    14.298438
6556.48    55.618404    13.432109
6557.09    46.271877    13.079516
6557.70    48.807987    10.006569
6558.31    43.383526    12.770449
6558.91    55.376724    11.614307
6559.52    54.107590    15.860429
6560.13    54.728058    21.387939
6560.73    75.086319    17.881224
6561.34    57.478493    17.844868
6561.95    48.474682    25.288389
6562.56    47.823498    27.509832
6563.16    46.504333    23.071762
6563.77    55.976505    20.007076
6564.38    71.331161    14.652463
6564.98    68.751343    15.173957
6565.59    59.582565    14.902115
6566.20    58.078804    11.631941
6566.81    57.141682    13.843781
6567.41    50.680710    19.322681
6568.02    54.312088    18.176739
6568.63    69.443024    12.489468
6569.23    65.130333    13.194997
6569.84    35.476002    20.842903
6570.45    49.970505    18.113417
6571.06    51.900803    17.817566
6571.66    49.689884    21.225962
6572.27    65.550209    20.387959
6572.88    66.970955    16.165281
6573.48    46.308311    16.073666
6574.09    45.011623    14.594995
6574.70    51.836697    17.688915
6575.31    54.864605    21.546198
6575.91    70.319130    14.308534
6576.52    68.981468    16.583717
6577.13    71.354256    18.107761
6577.73    74.872986    16.633514
6578.34    70.430321    14.189790
6578.95    68.283073     9.866497
6579.56    62.799843    16.289703
6580.16    54.398163    16.775322
6580.77    53.185200    18.511457
6581.38    61.403549    23.781908
6581.98    66.151398    17.284616
6582.59    60.052784    19.851881
6583.20    57.800537    19.654451
6583.81    64.380318    15.910883
6584.41    73.331573    14.795062
6585.02    74.770569    13.932397
6585.63    59.223495    16.202114
6586.23    54.331383    17.497044
6586.84    60.275188    16.343584
6587.45    61.869820    14.796782
6588.05    60.882011    14.051037
6588.66    63.274139    14.065135
6589.27    54.539665    18.478662
6589.88    62.666451    15.879646
6590.48    80.207817     8.653224
6591.09    63.052155    12.761927
6591.70    52.463043    14.523376
6592.30    48.540310    17.105118
6592.91    57.836090    14.200962
6593.52    72.703217     8.809855
6594.13    67.508919    11.936984
6594.73    52.546295    10.619703
6595.34    61.802345    10.121766
6595.95    62.399765    14.864509
6596.55    52.393902    17.764227
6597.16    66.916374    13.027838
6597.77    69.972076    11.391649
6598.38    51.591572    15.735688
6598.98    44.193993    18.828987
6599.59    58.385117    17.445452
6600.20    65.854584    17.066904
6600.80    53.304276    21.312304
6601.41    58.613380    21.796825
6602.02    69.235458    16.951687
6602.63    65.272644    15.849145
6603.23    55.641766    21.248241
6603.84    54.437347    21.366146
6604.45    48.493603    18.985044
6605.05    45.741863    16.703087
6605.66    56.327805    13.791384
6606.27    72.365517    10.795732
6606.88    76.414658    10.818851
6607.48    70.406548    12.244418
6608.09    69.900192    10.141455
6608.70    64.603470    12.334478
6609.30    53.198246    18.276300
6609.91    54.108654    15.233004
6610.52    49.948631    14.083714
6611.13    61.774242    13.243172
6611.73    71.054474    13.661564
6612.34    63.008873    16.733944
6612.95    55.105728    18.024652
6613.55    48.030155    14.972321
6614.16    47.136806    18.280228
6614.77    55.193512    15.650043
6615.38    63.338661     9.553207
6615.98    61.742096    14.311617
6616.59    53.917343    18.730024
6617.20    44.849598    17.774231
6617.80    55.831764    13.207952
6618.41    68.443390    15.367903
6619.02    67.632050    23.506365
6619.63    85.049049    22.335447
6620.23    113.058716    19.984947
6620.84    130.842606    16.379286
6621.45    147.940277    15.398971
6622.05    170.839325    15.394483
6622.66    173.648727    11.039062
6623.27    143.054352    13.957283
6623.87    137.192627    15.997831
6624.48    149.223633    16.351847
6625.09    143.837433    19.024359
6625.70    118.713814    20.914339
6626.30    98.917717    15.297901
6626.91    100.705261     9.618429
6627.52    73.732864    10.604630
6628.12    53.528622    18.238541
6628.73    65.371475    22.810747
6629.34    48.242920    15.734145
6629.95    62.980286    10.870102
6630.55    49.646305    13.699535
6631.16    38.927052    16.522625
6631.77    55.014015    14.239003
6632.37    51.983727    10.992147
6632.98    50.051594     9.936726
6633.59    49.757122    10.660592
6634.20    50.808399    11.256804
6634.80    47.987240    15.015717
6635.41    41.774288    21.385557
6636.02    44.504700    21.994144
6636.62    46.614536    22.502596
6637.23    43.239296    18.787117
6637.84    43.269539    12.517296
6638.45    45.721771    11.575555
6639.05    39.104530    18.881353
6639.66    36.632420    26.242168
6640.27    61.569767    18.928473
6640.87    69.996544    14.912217
6641.48    74.014694    16.685045
6642.09    99.276588    12.670143
6642.70    96.460686    11.885145
6643.30    99.492828    13.385776
6643.91    99.515556    14.909216
6644.52    93.599609    14.500770
6645.12    90.665833    14.301939
6645.73    92.001228    14.999173
6646.34    95.018547     9.725657
6646.95    83.234985    10.250809
6647.55    69.203217    13.523205
6648.16    59.576515    13.758618
6648.77    58.165493    13.018397
6649.37    69.240303    13.943740
6649.98    51.105473    14.361807
6650.59    36.623459    17.600603
6651.20    42.709213    15.544251
6651.80    50.800808    10.669945
6652.41    43.395878    14.187276
6653.02    31.391418    16.997540
6653.62    47.107449    15.131736
6654.23    47.108849    13.030038
6654.84    43.920135    13.346235
6655.45    55.367630    13.976558
6656.05    45.404999    13.035759
6656.66    41.180252    12.234102
6657.27    54.107346    10.927945
6657.87    61.219341     8.802924
6658.48    54.263390     8.194024
6659.09    44.913799     8.940746
6659.69    38.791618     7.920368
6660.30    46.709099    11.253981
6660.91    48.382534    16.543634
6661.52    42.069061    17.704634
6662.12    42.301926    13.713251
6662.73    49.172260     9.924318
6663.34    48.285545    10.711212
6663.94    47.397820    12.271885
6664.55    41.040134    14.687916
6665.16    42.067482    16.289145
6665.77    53.795563    14.266625
6666.37    53.028980    11.003478
6666.98    41.401836    13.005061
6667.59    41.561256    17.878696
6668.19    41.772102    18.393383
6668.80    40.818035    14.395515
6669.41    47.019119    10.440815
6670.02    53.600990     8.941473
6670.62    60.660599    11.636567
6671.23    49.850830    10.865343
6671.84    40.129650    10.196403
6672.44    48.168522    11.026383
6673.05    58.412155    11.167675
6673.66    56.051460    12.171365
6674.27    57.186138     8.651516
6674.87    41.451534    14.851464
6675.48    38.568401    16.492786
6676.09    54.858654    11.493680
6676.69    55.216656    14.289253
6677.30    45.290092    14.408607
6677.91    50.433502     9.407658
6678.52    49.079304    12.345147
6679.12    43.127659    14.756680
6679.73    45.193806    11.244184
6680.34    50.313221     9.888441
6680.94    51.386505     8.853148
6681.55    45.942497    12.289715
6682.16    41.770073    16.758574
6682.77    40.678524    15.251048
6683.37    45.276745    13.585645
6683.98    53.117340    18.136547
6684.59    49.425350    15.756367
6685.19    49.465981    10.582127
6685.80    44.006378    11.966376
6686.41    33.588802    17.207644
6687.02    35.805466    17.094780
6687.62    48.248112    12.939477
6688.23    42.924816    14.871275
6688.84    40.770119    13.015119
6689.44    41.120121    11.437190
6690.05    50.045002    12.742128
6690.66    55.802185    12.489609
6691.27    41.088047    11.097713
6691.87    33.958420    14.020891
6692.48    37.711895    10.612247
6693.09    39.248562    12.845542
6693.69    43.096863    17.168577
6694.30    52.278889    16.876839
6694.91    54.743130    14.608102
6695.51    45.543961     9.156977
6696.12    36.096973    12.437353
6696.73    52.374264    14.971588
6697.34    55.998665    12.431268
6697.94    42.275646    11.232419
6698.55    46.375019    11.777648
6699.16    46.177292     8.083246
6699.76    46.740543    11.343830
6700.37    57.754749    15.954025
6700.98    50.965183    17.237261
6701.59    38.352154    14.790191
6702.19    45.417149    11.943936
6702.80    41.374138    13.021363
6703.41    40.574696    10.626724
6704.01    54.615101    10.229545
6704.62    52.341839    15.432611
6705.23    37.186924    17.404909
6705.84    35.048706    13.733289
6706.44    35.036907    14.027653
6707.05    34.685463    11.867533
6707.66    45.169834    15.594078
6708.26    45.407074    15.828701
6708.87    46.071175    11.636648
6709.48    54.017300     9.583361
6710.09    46.902977     9.040008
6710.69    45.753914    12.579200
6711.30    37.982903    12.378442
6711.91    47.506447     8.114923
6712.51    56.621990    11.031060
6713.12    41.812263    17.814863
6713.73    30.185844    15.755609
6714.34    43.683060    13.956840
6714.94    47.935879    15.197933
6715.55    55.866356    12.351200
6716.16    56.207634    11.852208
6716.76    40.354794    14.262851
6717.37    35.255604    12.749147
6717.98    50.714931    11.974118
6718.59    44.998436    13.007802
6719.19    50.095425    11.399625
6719.80    53.550694     8.307386
6720.41    43.625771     9.064497
6721.01    41.330250    12.421373
6721.62    46.820847    11.957108
6722.23    32.931690    10.157433
6722.84    50.627609    10.359655
6723.44    54.467155    12.698449
6724.05    40.463104    14.602927
6724.66    40.952843    11.128003
6725.26    50.741470     5.989608
6725.87    50.550205    10.646637
6726.48    41.847733    12.638309
6727.09    44.776142    15.347284
6727.69    45.264950    18.371593
6728.30    37.167873    16.485525
6728.91    40.445129    11.132922
6729.51    51.973003    11.057564
6730.12    37.141285    17.585732
6730.73    36.608639    14.424129
6731.33    49.833889     9.438091
6731.94    53.192654    12.522453
6732.55    44.142441    15.992784
6733.16    39.045151    12.707231
6733.76    43.687012    11.997664
6734.37    45.715805    11.451111
6734.98    47.009449     9.471383
6735.58    41.701618    13.411887
6736.19    38.335461    17.427799
6736.80    35.797249    15.816751
6737.41    29.395418    14.884731
6738.01    54.174778    10.361481
6738.62    59.558460    10.627109
6739.23    56.921734    10.404414
6739.83    53.241253    10.723940
6740.44    52.314220    14.280972
6741.05    58.365955    15.811997
6741.66    54.203869    12.101072
6742.26    47.251343     9.334215
6742.87    50.952679     8.139916
6743.48    53.141533     8.203486
6744.08    48.781715    10.172683
6744.69    43.642914    14.281180
6745.30    41.006886    16.960545
6745.91    43.711082    14.998703
6746.51    45.250660    17.027143
6747.12    36.997295    13.371510
6747.73    42.484127     9.757138
6748.33    50.289890    10.320946
6748.94    42.107494    11.242826
6749.55    37.952435    12.009182
6750.16    39.651863    11.208908
6750.76    41.954811     9.258755
6751.37    40.709667     9.281718
6751.98    40.425350     7.264353
6752.58    42.995571     4.525806
6753.19    45.441219     6.801515
6753.80    48.085018    11.067646
6754.41    51.667049    11.963328
6755.01    51.106934    12.299783
6755.62    42.094563    10.368845
6756.23    43.587791    11.442555
6756.83    46.259529    12.300457
6757.44    42.034286     8.679893
6758.05    51.996506     9.000464
6758.66    38.355816     9.391579
6759.26    33.255131    15.191124
6759.87    39.909191    12.795203
6760.48    43.921566    10.258451
6761.08    35.614368    16.176773
6761.69    27.355692    17.170197
6762.30    38.929356     9.030377
6762.91    44.387428    10.263165
6763.51    48.185394    13.132010
6764.12    43.898136    10.950954
6764.73    44.617081     7.968189
6765.33    50.827080    10.712220
6765.94    50.101387    15.173340
6766.55    48.067257    12.029802
6767.15    33.341911     9.605845
6767.76    35.680016    14.374164
6768.37    37.750366    11.797285
6768.98    35.695656    12.224341
6769.58    40.146572    15.564023
6770.19    48.409641     8.902504
6770.80    51.986103     6.002266
6771.40    41.947105     8.614079
6772.01    34.051983     9.296665
6772.62    43.161541     8.379529
6773.23    50.297668     7.733939
6773.83    39.967377     8.565774
6774.44    35.766346    10.135766
6775.05    52.193600     9.997909
6775.65    51.435490    10.062671
6776.26    63.330021     9.146063
6776.87    57.488029     9.264050
6777.48    60.399929     7.662201
6778.08    70.107391     8.193309
6778.69    61.818066    12.616419
6779.30    57.462227    15.285675
6779.90    46.156105    20.176289
6780.51    54.353783    12.235285
6781.12    51.538551     8.838045
6781.73    51.950874    11.366348
6782.33    54.984612     9.157892
6782.94    41.890240     6.024946
6783.55    33.288544     9.278620
6784.15    41.945335    10.899936
6784.76    33.860748    12.229498
6785.37    39.349159     9.494946
6785.98    34.319290    11.152578
6786.58    32.224968    15.423988
6787.19    48.092415    13.832254
6787.80    48.626373     9.653293
6788.40    34.139679    10.946315
6789.01    33.813560    14.999611
6789.62    50.211308    11.273323
6790.23    42.753319    10.592970
6790.83    34.271774    12.718833
6791.44    38.567886    13.233539
6792.05    43.541115    10.848891
6792.65    58.364784     6.026334
6793.26    56.475723    11.472759
6793.87    53.557243    12.965076
6794.48    43.920967    14.337418
6795.08    38.457169    14.774220
6795.69    36.171249    13.518668
6796.30    36.983368     8.914907
6796.90    49.256065     4.299576
6797.51    50.345276    10.921448
6798.12    35.080273     8.032136
6798.73    32.605019    13.381425
6799.33    35.319736    12.426058
6799.94    40.718704     7.509326
6800.55    43.048775     8.690035
6801.15    40.659588    10.112820
6801.76    45.962727    11.136399
6802.37    40.931599    13.321819
6802.97    49.085075     6.221269
6803.58    49.535595     6.771538
6804.19    45.076496     6.650585
6804.80    48.304642     5.715065
6805.40    44.289982    10.165283
6806.01    31.688683    10.655752
6806.62    38.936226     7.991095
6807.22    37.412155    11.622405
6807.83    38.588276    10.302896
6808.44    42.385811     7.217286
6809.05    38.756187    11.298515
6809.65    34.629841    13.027112
6810.26    39.686134    10.352631
6810.87    45.183903    12.773725
6811.47    42.383213     6.231036
6812.08    36.860851     7.983840
6812.69    42.406647    11.602324
6813.30    41.313374    11.611108
6813.90    37.293224    10.739391
6814.51    42.453072    11.359390
6815.12    47.223740    11.963385
6815.72    44.873932     9.793250
6816.33    40.920284     6.846593
6816.94    29.924725    11.532899
6817.55    41.346321     8.654442
6818.15    42.610138     8.152219
6818.76    33.538055    12.990762
6819.37    34.432022    13.568352
6819.97    35.067715    11.996803
6820.58    36.055229    11.923009
6821.19    38.732807     8.010566
6821.80    39.033150    12.055511
6822.40    34.318050    11.658934
6823.01    46.192493     8.595976
6823.62    52.255550     7.578897
6824.22    38.407112     6.877680
6824.83    39.875336    10.097003
6825.44    49.931705    19.102497
6826.05    33.319408    21.525192
6826.65    37.794838    14.955875
6827.26    43.840187    16.645180
6827.87    41.238316    20.319613
6828.47    42.667965    22.348476
6829.08    42.342056    23.660334
6829.69    35.747490    22.146868
6830.30    37.995285    25.018644
6830.90    34.233688    24.214176
6831.51    37.640369    23.191179
6832.12    45.821064    22.067816
6832.72    41.059235    18.907324
6833.33    46.791504    19.065870
6833.94    44.840927    22.872709
6834.55    22.692459    24.158052
6835.15    46.212807    23.952757
6835.76    36.025299    19.649467
6836.37    40.450127    15.241065
6836.97    37.999187    16.597122
6837.58    39.747868    14.914092
6838.19    49.582729    10.306202
6838.79    45.854172    10.822041
6839.40    36.375458    12.978719
6840.01    40.216324    10.941906
6840.62    39.159847    10.976716
6841.22    24.251482    10.370677
6841.83    37.779648     9.175316
6842.44    38.448078    13.749635
6843.04    41.873917    15.124785
6843.65    50.097427    10.944746
6844.26    35.166977     9.779251
6844.87    38.564430     9.002621
6845.47    43.163033     9.921338
6846.08    35.429970    11.431005
6846.69    34.309673    14.370150
6847.29    44.268692     9.696427
6847.90    44.100986     7.529709
6848.51    30.765921    13.264656
6849.12    28.984011    14.292473
6849.72    40.648861     9.702511
6850.33    39.977371     9.981700
6850.94    44.615940    10.020489
6851.54    41.883194    10.095942
6852.15    36.285511     9.525106
6852.76    31.199465    12.066826
6853.37    42.382011    11.394114
6853.97    48.957886     9.825489
6854.58    30.609324    12.621143
6855.19    37.322201     6.920306
6855.79    43.020233     8.052817
6856.40    40.197758     4.961315
6857.01    43.269505     9.949800
6857.62    44.744164    11.395854
6858.22    34.824863    13.545650
6858.83    31.771183    11.872232
6859.44    36.057693     5.799775
6860.04    29.155163    15.415401
6860.65    40.551529    13.053175
6861.26    44.120377    16.234808
6861.87    33.164112    19.501482
6862.47    28.085485    26.577791
6863.08    34.263748    28.588781
6863.69    36.242126    29.829359
6864.29    38.683502    28.380421
6864.90    47.005039    18.528812
6865.51    39.824821    19.847792
6866.12    39.192696     9.690697
6866.72    32.916138    10.413390
6867.33    25.854588    16.615494
6867.94    21.441317    13.673464
6868.54    22.656889     7.398829
6869.15    30.388506     5.802945
6869.76    36.821003     6.047082
6870.36    30.178234     7.352881
6870.97    16.018536     9.033777
6871.58    23.137520     4.660713
6872.19    10.413732    13.909501
6872.79    15.532129    13.920769
6873.40    26.108532     8.548306
6874.01    25.272976     8.058459
6874.61    23.333944     7.573577
6875.22    26.894382     5.613150
6875.83    37.545067     5.065802
6876.44    36.334248     6.906582
6877.04    29.145485     8.062161
6877.65    33.936268     6.649812
6878.26    30.958408     5.444082
6878.86    24.712702    11.747808
6879.47    37.786118    13.813519
6880.08    48.286602     9.719301
6880.69    28.578770    12.423677
6881.29    17.450140    13.002736
6881.90    33.742607    13.014325
6882.51    22.904137    12.313393
6883.11    34.980949    10.386577
6883.72    43.565174     9.881416
6884.33    41.579468     6.146229
6884.94    38.671040     4.873250
6885.54    26.761129    10.650179
6886.15    20.900440    11.392647
6886.76    34.499683     6.973163
6887.36    38.161804     9.870953
6887.97    34.178516     8.863872
6888.58    29.581997    12.738161
6889.19    34.787197    13.271534
6889.79    34.792736    11.632001
6890.40    30.578142    12.078472
6891.01    34.118935     9.947399
6891.61    36.054466     5.278762
6892.22    36.053101     3.001234
6892.83    37.989216     4.805900
6893.44    35.156380     6.635231
6894.04    29.087021     8.518585
6894.65    24.064575     9.282170
6895.26    30.117964     8.252717
6895.86    32.132252     5.918076
6896.47    31.334581     5.394444
6897.08    38.206017    10.096903
6897.69    26.844591    15.058510
6898.29    33.566792    11.526171
6898.90    32.516022     4.787923
6899.51    32.911243     4.481235
6900.11    30.894791     9.973607
6900.72    35.240963     8.948383
6901.33    35.096786     8.207174
6901.94    31.349077    10.688121
6902.54    36.275223     9.546119
6903.15    31.500977    12.832880
6903.76    44.248932     6.144764
6904.36    24.077175     9.551620
6904.97    31.712568     7.126324
6905.58    28.449995     6.768401
6906.18    23.784393     8.533923
6906.79    32.306343     7.248583
6907.40    33.537636     7.730032
6908.01    32.161583    10.230958
6908.61    35.274967    10.014062
6909.22    36.069946    11.883147
6909.83    31.154066    15.022729
6910.43    25.642189    11.064844
6911.04    37.921902     4.608264
6911.65    38.734261    10.707329
6912.26    33.886879    14.321611
6912.86    30.612101    10.716616
6913.47    24.995575    13.733851
6914.08    33.062386    15.008949
6914.68    30.012028    12.991659
6915.29    43.441132     8.256117
6915.90    35.307571     8.826054
6916.51    34.410286     7.638021
6917.11    34.621902     7.311818
6917.72    30.065786     8.216794
6918.33    31.346642     5.146626
6918.93    34.278980     3.649631
6919.54    34.179291     8.624351
6920.15    36.028358    11.162786
6920.76    35.080265    14.935340
6921.36    34.900639    13.738270
6921.97    34.476078    18.666971
6922.58    27.398247    19.029448
6923.18    29.861944    18.465742
6923.79    33.404743    15.067440
6924.40    27.456797    13.557835
6925.01    34.453140    18.896076
6925.61    48.040539    13.742234
6926.22    36.244923    14.035979
6926.83    31.644487    10.186861
6927.43    25.070038    12.492155
6928.04    32.069389    11.139039
6928.65    33.179317     9.979414
6929.26    32.582413     8.637556
6929.86    31.268383     7.124618
6930.47    28.927971     7.750497
6931.08    36.508461     5.860152
6931.68    26.945755     5.990167
6932.29    33.815952     5.052146
6932.90    27.823971     5.577272
6933.51    32.037437     7.932748
6934.11    37.768749     6.283779
6934.72    33.812248     8.347460
6935.33    27.536331     8.494071
6935.93    26.465216     6.854576
6936.54    34.792206     9.671167
6937.15    41.379189     7.283111
6937.76    30.012941    12.987186
6938.36    38.171043     9.061474
6938.97    23.662033    13.699631
6939.58    28.808754     7.767249
6940.18    43.949711     6.212432
6940.79    34.521309    10.384450
6941.40    24.345785    11.866945
6942.00    29.995678    12.678905
6942.61    33.246582     9.398255
6943.22    39.969387     6.919779
6943.83    31.584515     6.910411
6944.43    27.296919     8.236833
6945.04    35.195755     5.133269
6945.65    36.466183     8.452042
6946.25    38.218529     8.777908
6946.86    35.357986    10.562184
6947.47    20.246460    18.205952
6948.08    18.833393    19.965824
6948.68    32.283283    18.900841
6949.29    26.004501    17.960848
6949.90    35.293362    15.133289
6950.50    35.790428    14.667055
6951.11    40.499233     9.365366
6951.72    30.462677    13.962743
6952.33    30.587589    15.882184
6952.93    45.028099     9.469926
6953.54    41.323257     6.202255
6954.15    28.108664     8.265468
6954.75    27.293800    14.162088
6955.36    31.919415    10.098362
6955.97    34.505993     5.876783
6956.58    26.964066    10.201506
6957.18    29.332119    10.067828
6957.79    29.489113    12.680204
6958.40    25.704779     8.458462
6959.00    29.622700     2.701189
6959.61    34.649849     7.050256
6960.22    35.490780     6.457675
6960.83    37.915417     5.235878
6961.43    31.422522    10.897968
6962.04    28.353434     7.887742
6962.65    54.964745     4.455486
6963.25    36.264824     9.411137
6963.86    25.581873     9.726670
6964.47    29.947506     8.134666
6965.08    39.816322     8.654208
6965.68    51.108749     8.579113
6966.29    28.175697    11.029833
6966.90    33.304562     8.914238
6967.50    37.403233     8.076196
6968.11    48.776237     7.438932
6968.72    38.523323    12.304674
6969.33    35.381069     4.819455
6969.93    35.462688     5.623319
6970.54    29.406384    12.773376
6971.15    33.342400     8.984577
6971.75    38.094814     4.173763
6972.36    32.201908     2.897035
6972.97    41.198380     3.041577
6973.58    41.549305     5.763521
6974.18    33.834648     7.153642
6974.79    34.682507     5.391421
6975.40    37.154598     5.543090
6976.00    36.704636     5.884771
6976.61    40.829483     7.166988
6977.22    36.405983    13.972934
6977.82    22.691050    17.288193
6978.43    30.642199     9.136992
6979.04    39.992821     7.015051
6979.65    33.079239    10.739818
6980.25    40.312344    10.482435
6980.86    33.767159     8.493981
6981.47    33.256931     7.511660
6982.07    35.933887     9.682148
6982.68    38.766693    10.778163
6983.29    31.413651    10.278605
6983.90    20.119526    10.633859
6984.50    39.414532     7.856654
6985.11    27.084127     8.002618
6985.72    31.211758     6.315716
6986.32    31.718769     4.651780
6986.93    29.074667     8.125240
6987.54    20.419962     7.656947
6988.15    21.327442     5.259421
6988.75    28.901268     7.226357
6989.36    33.300835     7.044887
6989.97    35.762192     5.631389
6990.57    24.386627     9.968725
6991.18    25.828867     5.098680
6991.79    30.967882     5.637346
6992.40    26.147259     7.604884
6993.00    20.197266     9.004736
6993.61    31.637878     7.881407
6994.22    34.586281     6.826984
6994.82    25.976618     6.851821
6995.43    28.073370     5.510398
6996.04    31.475174     5.271053
6996.65    33.084473     6.992585
6997.25    33.105125     6.840707
6997.86    29.418669    12.033987
6998.47    29.301395     5.695230
6999.07    33.018551     4.893775
6999.68    42.315228     5.389576
7000.29    39.231239     6.604383
7000.90    30.980928     6.684000
7001.50    31.085470     4.658288
7002.11    27.022545     9.286825
7002.72    32.291859     6.837203
7003.32    31.747885     5.005361
7003.93    16.642273     6.452840
7004.54    27.763226     9.211949
7005.15    37.903820     5.630574
7005.75    33.799301     4.449708
7006.36    32.887642     6.740989
7006.97    35.077148     4.729775
7007.57    33.966362     5.357831
7008.18    32.267483    11.138761
7008.79    25.921555     7.956803
7009.40    27.684511     9.010039
7010.00    31.605728     6.446934
7010.61    39.979553     6.144732
7011.22    37.020798     3.937416
7011.82    33.636398     3.921291
7012.43    35.299683     7.584912
7013.04    32.735489     9.246410
7013.64    29.586828     8.845568
7014.25    31.589638     7.844619
7014.86    35.999786     7.000266
7015.47    30.708334     7.310487
7016.07    26.659748     2.508541
7016.68    23.895723     4.872506
7017.29    27.307215     9.519562
7017.89    34.883720     5.857774
7018.50    28.045483     6.174994
7019.11    19.289646    11.335744
7019.72    29.991493     8.695468
7020.32    31.503849     8.991252
7020.93    27.732470     7.100397
7021.54    42.820553     4.751107
7022.14    27.112343     9.730734
7022.75    26.357203    10.919791
7023.36    34.506531     4.326582
7023.97    35.397053     2.772038
7024.57    33.617630     5.291022
7025.18    28.739002     3.454833
7025.79    24.104883     4.737884
7026.39    23.375162     9.000918
7027.00    32.207493     6.033083
7027.61    19.754677     8.834933
7028.22    29.708694     5.861057
7028.82    29.155628     6.855843
7029.43    28.081585    11.009387
7030.04    26.783779     9.308459
7030.64    30.454441     4.558782
7031.25    42.130249     2.963497
7031.86    22.723305     5.575682
7032.47    18.045149     8.994531
7033.07    31.910248     5.793119
7033.68    19.140875    12.906338
7034.29    25.540791    10.706004
7034.89    43.660362     4.838304
7035.50    34.695805     3.988457
7036.11    19.850727     6.275090
7036.72    19.353899     8.125881
7037.32    18.847189     8.248949
7037.93    25.105373     8.827872
7038.54    21.190315     5.037668
7039.14    21.916304     8.274714
7039.75    29.946505     9.957448
7040.36    28.422291     4.530773
7040.97    28.259926     4.423555
7041.57    23.477194     8.337209
7042.18    23.740845     6.882116
7042.79    32.292030     5.197682
7043.39    21.271362     6.995943
7044.00    26.076212     6.009077
7044.61    32.912006     8.871424
7045.22    29.030397     7.374738
7045.82    28.022575     7.966032
7046.43    30.075624    10.882508
7047.04    21.866743    12.868118
7047.64    21.351704    12.441514
7048.25    30.830143    10.506219
7048.86    26.337317     8.515909
7049.46    28.374992     5.933735
7050.07    37.460854     5.167625
7050.68    40.967690     2.468647
7051.29    31.624649     9.807923
7051.89    32.854588     6.454498
7052.50    25.952204     2.481761
7053.11    27.888723     4.461622
7053.71    39.189259     3.760069
7054.32    29.345051     6.077533
7054.93    28.109161    11.201621
7055.54    28.081631    10.046936
7056.14    24.115112     9.198770
7056.75    28.414524     7.225855
7057.36    36.343636     8.120836
7057.96    21.206879     9.547630
7058.57    22.751011     7.600482
7059.18    40.646400     3.504865
7059.79    38.153439     4.180051
7060.39    39.400093     9.024508
7061.00    28.032528     6.000972
7061.61    22.215363     8.893528
7062.21    21.875206     6.319112
7062.82    22.679018     8.806613
7063.43    28.046219     8.941031
7064.04    28.795515     9.206774
7064.64    28.034462    10.557269
7065.25    30.801332     5.519653
